10/04/1989,2.104,2.1705,2.0773,2.1306,20636000
10/05/1989,2.1439,2.2371,2.1306,2.1972,6453600
10/06/1989,2.2105,2.2371,2.1706,2.1706,2755200
10/09/1989,2.1706,2.1706,2.1306,2.1706,1084000
10/10/1989,2.1839,2.1839,2.1306,2.1572,1493600
10/11/1989,2.1306,2.1439,2.104,2.1439,1260000
10/12/1989,2.1439,2.1705,2.1439,2.1572,602400
10/13/1989,2.1572,2.1572,2.104,2.1173,3970400
10/16/1989,2.0241,2.104,2.0241,2.104,3924800
10/17/1989,2.0773,2.1306,2.0773,2.1306,1843200
10/18/1989,2.1306,2.1839,2.1173,2.1706,1128000
10/19/1989,2.1572,2.1706,2.1572,2.1706,1040000
10/20/1989,2.1572,2.1572,2.1439,2.1572,237600
10/23/1989,2.1706,2.1839,2.1706,2.1706,87200
10/24/1989,2.1706,2.1839,2.1572,2.1839,689600
10/25/1989,2.1706,2.1972,2.1439,2.1706,608000
10/26/1989,2.1706,2.1839,2.1706,2.1706,228800
10/27/1989,2.1705,2.1705,2.1306,2.1439,456000
10/30/1989,2.1439,2.1439,2.1306,2.1306,250400
10/31/1989,2.1306,2.1439,2.1306,2.1306,424800
11/01/1989,2.1439,2.1839,2.1439,2.1839,715200
11/02/1989,2.2105,2.2504,2.2105,2.2504,130400
11/03/1989,2.2371,2.3437,2.2371,2.3303,1118400
11/06/1989,2.317,2.317,2.1972,2.1972,264800
11/07/1989,2.1705,2.2904,2.1306,2.2904,727200
11/08/1989,2.2904,2.317,2.2771,2.317,236800
11/09/1989,2.317,2.317,2.2904,2.2904,60800
11/10/1989,2.2904,2.2904,2.1706,2.1839,210400
11/13/1989,2.1839,2.1839,2.1439,2.1706,92800
11/14/1989,2.1972,2.1972,2.1173,2.1572,428000
11/15/1989,2.1706,2.1972,2.1572,2.1839,176000
11/16/1989,2.1705,2.2105,2.1705,2.2105,301600
11/17/1989,2.2105,2.2504,2.2105,2.2504,249600
11/20/1989,2.2638,2.2638,2.2238,2.2238,43200
11/21/1989,2.2105,2.2771,2.2105,2.2771,108800
11/22/1989,2.2904,2.3437,2.2904,2.3437,255200
11/24/1989,2.3703,2.5168,2.3703,2.4901,572000
11/27/1989,2.4768,2.5035,2.4369,2.4502,253600
11/28/1989,2.4502,2.4502,2.4102,2.4102,560000
11/29/1989,2.3969,2.3969,2.3703,2.3836,60800
11/30/1989,2.3969,2.4768,2.3969,2.4635,712800
12/01/1989,2.4635,2.5168,2.4635,2.4768,356800
12/04/1989,2.5035,2.5434,2.4502,2.5434,172000
12/05/1989,2.5168,2.5434,2.4768,2.4768,93600
12/06/1989,2.4768,2.5567,2.4768,2.5434,668800
12/07/1989,2.5434,2.5434,2.4901,2.5168,215200
12/08/1989,2.4901,2.5168,2.4901,2.5168,122400
12/11/1989,2.5301,2.5833,2.5035,2.5567,306400
12/12/1989,2.57,2.5833,2.5434,2.57,1119200
12/13/1989,2.5567,2.6899,2.5434,2.6899,400000
12/14/1989,2.6632,2.6766,2.6499,2.6632,391200
12/15/1989,2.6766,2.6766,2.6366,2.6499,155200
12/18/1989,2.6233,2.6632,2.5833,2.5833,224000
12/19/1989,2.5833,2.61,2.5833,2.61,215200
12/20/1989,2.61,2.6499,2.5967,2.6233,166400
12/21/1989,2.6499,2.6632,2.61,2.6499,174400
12/22/1989,2.6632,2.6632,2.6499,2.6632,173600
12/26/1989,2.6499,2.6499,2.6233,2.6233,97600
12/27/1989,2.61,2.61,2.5833,2.5833,144000
12/28/1989,2.5967,2.5967,2.5833,2.5833,11200
12/29/1989,2.5833,2.6899,2.57,2.6899,219200
01/02/1990,2.6632,2.6632,2.5833,2.5967,194400
01/03/1990,2.61,2.61,2.5833,2.5833,361600
01/04/1990,2.5833,2.61,2.5168,2.5168,166400
01/05/1990,2.5035,2.5035,2.4369,2.4768,100800
01/08/1990,2.4502,2.4635,2.4236,2.4369,880800
01/09/1990,2.4102,2.4236,2.3969,2.3969,282400
01/10/1990,2.3622,2.3622,2.2955,2.3088,784000
01/11/1990,2.3222,2.3622,2.3088,2.3489,347200
01/12/1990,2.3222,2.3355,2.2955,2.3222,159200
01/15/1990,2.3355,2.3355,2.3222,2.3222,25600
01/16/1990,2.2955,2.3088,2.2421,2.3088,172800
01/17/1990,2.3222,2.4023,2.3222,2.3222,216000
01/18/1990,2.2955,2.3222,2.2955,2.3088,157600
01/19/1990,2.3355,2.3489,2.3355,2.3489,8800
01/22/1990,2.3355,2.3489,2.3222,2.3355,56800
01/23/1990,2.3622,2.3622,2.3355,2.3489,101600
01/24/1990,2.3355,2.3355,2.2955,2.2955,26400
01/25/1990,2.2955,2.3222,2.2822,2.3222,249600
01/26/1990,2.3088,2.3222,2.2822,2.2822,45600
01/29/1990,2.2955,2.2955,2.2421,2.2554,444000
01/30/1990,2.2421,2.2688,2.2021,2.2688,548000
01/31/1990,2.2955,2.4423,2.2955,2.4423,757600
02/01/1990,2.4556,2.4556,2.429,2.4423,149600
02/02/1990,2.4556,2.4823,2.4556,2.4556,720000
02/05/1990,2.4823,2.4823,2.4556,2.4556,163200
02/06/1990,2.4556,2.4823,2.429,2.469,99200
02/07/1990,2.4823,2.509,2.4823,2.509,32800
02/08/1990,2.5357,2.6692,2.5357,2.6025,346400
02/09/1990,2.6291,2.6692,2.5357,2.5624,179200
02/12/1990,2.5624,2.5624,2.4823,2.4823,28000
02/13/1990,2.509,2.5224,2.509,2.5224,26400
02/14/1990,2.5224,2.5357,2.509,2.509,32800
02/15/1990,2.5224,2.5357,2.5224,2.5224,152000
02/16/1990,2.5357,2.5357,2.5357,2.5357,32000
02/20/1990,2.5491,2.5491,2.5224,2.5224,23200
02/21/1990,2.5224,2.5224,2.4823,2.4823,553600
02/22/1990,2.4823,2.4823,2.429,2.429,148000
02/23/1990,2.3756,2.3756,2.2955,2.3222,575200
02/26/1990,2.3355,2.3489,2.3355,2.3489,477600
02/27/1990,2.3622,2.429,2.3622,2.429,357600
02/28/1990,2.4023,2.4156,2.3889,2.3889,145600
03/01/1990,2.3889,2.3889,2.3489,2.3489,225600
03/02/1990,2.3489,2.3756,2.2955,2.3088,931200
03/05/1990,2.2822,2.3088,2.2688,2.2822,146400
03/06/1990,2.2822,2.3355,2.2421,2.3355,258400
03/07/1990,2.3355,2.3489,2.3088,2.3489,174400
03/08/1990,2.3489,2.3889,2.3355,2.3756,146400
03/09/1990,2.3489,2.3756,2.3355,2.3355,194400
03/12/1990,2.3088,2.3222,2.2421,2.2955,1072800
03/13/1990,2.2822,2.2955,2.2822,2.2955,662400
03/14/1990,2.2822,2.3622,2.2822,2.3622,298400
03/15/1990,2.3756,2.3889,2.3222,2.3222,192000
03/16/1990,2.3489,2.3756,2.3355,2.3756,271200
03/19/1990,2.3489,2.3622,2.3489,2.3622,476000
03/20/1990,2.3489,2.4823,2.3489,2.3889,898400
03/21/1990,2.3889,2.4023,2.3889,2.3889,102400
03/22/1990,2.3489,2.3622,2.3489,2.3622,177600
03/23/1990,2.3889,2.3889,2.3889,2.3889,320000
03/26/1990,2.3756,2.3756,2.3489,2.3489,37600
03/27/1990,2.3355,2.3489,2.3355,2.3489,24000
03/28/1990,2.429,2.509,2.429,2.4957,706400
03/29/1990,2.4957,2.509,2.469,2.4823,361600
03/30/1990,2.4957,2.4957,2.4957,2.4957,161600
04/02/1990,2.4957,2.4957,2.429,2.4556,184800
04/03/1990,2.4556,2.5891,2.4556,2.5491,358400
04/04/1990,2.5491,2.5491,2.4823,2.4823,364800
04/05/1990,2.509,2.5224,2.4823,2.4823,373600
04/06/1990,2.4957,2.4957,2.3756,2.3756,810400
04/09/1990,2.3408,2.3675,2.3408,2.3408,336800
04/10/1990,2.3542,2.4077,2.3274,2.3675,426400
04/11/1990,2.3809,2.4077,2.3274,2.3408,234400
04/12/1990,2.3274,2.3408,2.2204,2.2472,456000
04/16/1990,2.2605,2.3408,2.2605,2.314,273600
04/17/1990,2.3274,2.3274,2.314,2.3274,16800
04/18/1990,2.3007,2.3542,2.3007,2.3274,333600
04/19/1990,2.3274,2.3274,2.2873,2.3007,207200
04/20/1990,2.2873,2.3007,2.2739,2.2873,168800
04/23/1990,2.2739,2.2739,2.2472,2.2472,173600
04/24/1990,2.2472,2.2873,2.2472,2.2472,458400
04/25/1990,2.2739,2.2873,2.2605,2.2739,104000
04/26/1990,2.2472,2.3007,2.2472,2.3007,461600
04/27/1990,2.3007,2.314,2.3007,2.314,133600
04/30/1990,2.314,2.3274,2.3007,2.3274,68800
05/01/1990,2.3274,2.421,2.3007,2.4077,732800
05/02/1990,2.3809,2.421,2.3675,2.4077,575200
05/03/1990,2.4344,2.4478,2.421,2.421,105600
05/04/1990,2.4344,2.4344,2.3809,2.3809,279200
05/07/1990,2.3809,2.4344,2.3809,2.4344,32800
05/08/1990,2.4344,2.4344,2.421,2.421,48800
05/09/1990,2.4344,2.4478,2.3943,2.3943,1232800
05/10/1990,2.4077,2.4344,2.3943,2.3943,428000
05/11/1990,2.421,2.4612,2.421,2.4612,172000
05/14/1990,2.4745,2.4745,2.3542,2.3542,2418400
05/15/1990,2.3809,2.421,2.3542,2.4077,5804800
05/16/1990,2.4077,2.5414,2.4077,2.4879,367200
05/17/1990,2.5013,2.528,2.5013,2.528,196000
05/18/1990,2.5414,2.5682,2.5414,2.5682,181600
05/21/1990,2.5414,2.5414,2.5013,2.528,74400
05/22/1990,2.5548,2.5548,2.5414,2.5414,40800
05/23/1990,2.5414,2.5414,2.4879,2.4879,30400
05/24/1990,2.5013,2.5013,2.3542,2.4077,483200
05/25/1990,2.4077,2.4612,2.3542,2.4612,817600
05/29/1990,2.4745,2.4879,2.4745,2.4879,60800
05/30/1990,2.5147,2.5548,2.5013,2.5414,129600
05/31/1990,2.5147,2.5548,2.4879,2.5414,143200
06/01/1990,2.5414,2.5548,2.528,2.5414,47200
06/04/1990,2.5147,2.5548,2.4879,2.5548,68000
06/05/1990,2.5548,2.5682,2.3943,2.4745,1125600
06/06/1990,2.4745,2.4879,2.4612,2.4612,44000
06/07/1990,2.4745,2.4745,2.4478,2.4478,212800
06/08/1990,2.4612,2.4612,2.4077,2.4344,405600
06/11/1990,2.4478,2.4745,2.4344,2.4612,48800
06/12/1990,2.4879,2.5682,2.4478,2.5548,196000
06/13/1990,2.5414,2.6484,2.5414,2.5414,208000
06/14/1990,2.528,2.5548,2.5147,2.5548,20800
06/15/1990,2.5548,2.5548,2.5013,2.5414,158400
06/18/1990,2.5414,2.5414,2.5414,2.5414,1600
06/19/1990,2.5147,2.5147,2.4612,2.5013,174400
06/20/1990,2.528,2.528,2.4879,2.5147,127200
06/21/1990,2.5013,2.5147,2.5013,2.5147,6400
06/22/1990,2.5147,2.528,2.5013,2.528,356800
06/25/1990,2.5013,2.5147,2.4879,2.5013,24800
06/26/1990,2.4879,2.5013,2.4478,2.5013,207200
06/27/1990,2.5013,2.5147,2.5013,2.5013,13600
06/28/1990,2.5147,2.5414,2.5147,2.5414,157600
06/29/1990,2.5548,2.5548,2.528,2.5414,327200
07/02/1990,2.528,2.528,2.4612,2.4879,322400
07/03/1990,2.5147,2.5147,2.4612,2.4612,308800
07/05/1990,2.4344,2.4344,2.4077,2.421,596800
07/06/1990,2.3809,2.3943,2.3809,2.3943,82400
07/09/1990,2.3943,2.4077,2.3542,2.3809,724800
07/10/1990,2.3863,2.3863,2.3729,2.3863,1073600
07/11/1990,2.3863,2.4131,2.3863,2.3997,776000
07/12/1990,2.3997,2.4935,2.3997,2.4667,1208800
07/13/1990,2.4935,2.574,2.4935,2.5472,568000
07/16/1990,2.5606,2.574,2.5472,2.5472,680800
07/17/1990,2.5472,2.5472,2.5069,2.5069,102400
07/18/1990,2.5069,2.5069,2.4399,2.4399,348000
07/19/1990,2.4131,2.4667,2.3997,2.4667,465600
07/20/1990,2.4801,2.4935,2.4801,2.4801,51200
07/23/1990,2.4667,2.5203,2.4533,2.5203,349600
07/24/1990,2.4935,2.5874,2.4935,2.5606,353600
07/25/1990,2.5874,2.6008,2.574,2.6008,52000
07/26/1990,2.6276,2.6276,2.6008,2.6276,80000
07/27/1990,2.6008,2.6276,2.5606,2.5606,75200
07/30/1990,2.574,2.574,2.5606,2.574,160800
07/31/1990,2.5337,2.5874,2.5337,2.574,175200
08/01/1990,2.6008,2.6276,2.574,2.5874,134400
08/02/1990,2.6812,2.7214,2.6008,2.7214,1056800
08/03/1990,2.708,2.8019,2.6678,2.7482,1272000
08/06/1990,2.7885,2.8019,2.6812,2.6812,247200
08/07/1990,2.6812,2.6946,2.6812,2.6946,148800
08/08/1990,2.6812,2.6946,2.6544,2.6544,170400
08/09/1990,2.6544,2.6544,2.6276,2.6544,296000
08/10/1990,2.6544,2.6678,2.6544,2.6544,299200
08/13/1990,2.6678,2.6812,2.641,2.641,56800
08/14/1990,2.6678,2.6678,2.6276,2.6276,49600
08/15/1990,2.6276,2.708,2.6276,2.6812,196000
08/16/1990,2.6678,2.6812,2.641,2.6678,140000
08/17/1990,2.6946,2.7348,2.6812,2.6946,201600
08/20/1990,2.708,2.708,2.6142,2.6142,239200
08/21/1990,2.6276,2.6544,2.6276,2.641,452000
08/22/1990,2.6276,2.6544,2.5874,2.5874,333600
08/23/1990,2.574,2.574,2.5203,2.5472,364000
08/24/1990,2.5069,2.574,2.5069,2.574,326400
08/27/1990,2.574,2.574,2.5337,2.5337,88000
08/28/1990,2.5337,2.5606,2.5337,2.5606,8000
08/29/1990,2.5874,2.5874,2.5203,2.5203,140800
08/30/1990,2.5337,2.5606,2.4935,2.5606,65600
08/31/1990,2.5337,2.5606,2.4801,2.5069,256800
09/04/1990,2.5203,2.5337,2.5203,2.5337,20000
09/05/1990,2.5337,2.7348,2.5337,2.7214,223200
09/06/1990,2.7482,2.8287,2.7348,2.8287,317600
09/07/1990,2.8287,2.8823,2.8287,2.8823,160800
09/10/1990,2.8555,2.9091,2.8555,2.8823,1408800
09/11/1990,2.8957,2.8957,2.7348,2.8421,963200
09/12/1990,2.8689,2.8689,2.8019,2.8421,336000
09/13/1990,2.8421,2.8555,2.7885,2.7885,405600
09/14/1990,2.7885,2.9091,2.7885,2.9091,209600
09/17/1990,2.9091,2.9761,2.8957,2.9761,1116000
09/18/1990,2.9761,3.2309,2.9761,3.1504,776800
09/19/1990,3.1638,3.1638,3.137,3.137,1624800
09/20/1990,3.137,3.137,3.0298,3.0298,432000
09/21/1990,2.9896,3.0566,2.9761,3.0566,521600
09/24/1990,3.0566,3.0566,2.9896,3.0164,112800
09/25/1990,3.003,3.0164,3.003,3.0164,221600
09/26/1990,3.0164,3.0164,2.9627,2.9761,55200
09/27/1990,2.9493,2.9627,2.8957,2.8957,72800
09/28/1990,2.8957,2.8957,2.8153,2.8689,163200
10/01/1990,2.8555,2.9091,2.8287,2.8689,455200
10/02/1990,2.8823,2.8823,2.8555,2.8823,72000
10/03/1990,2.8689,2.8689,2.8421,2.8689,26400
10/04/1990,2.8689,2.8689,2.7885,2.7885,313600
10/05/1990,2.7751,2.8287,2.7348,2.7348,550400
10/08/1990,2.7482,2.7751,2.7348,2.7348,411200
10/09/1990,2.7536,2.9014,2.7536,2.8745,298400
10/10/1990,2.8745,2.8745,2.7671,2.7805,200000
10/11/1990,2.7939,2.7939,2.7536,2.7671,34400
10/12/1990,2.7402,2.7536,2.7268,2.7536,89600
10/15/1990,2.7536,2.7536,2.7133,2.7133,36800
10/16/1990,2.6999,2.7133,2.6731,2.6731,153600
10/17/1990,2.6731,2.6865,2.6596,2.6865,11200
10/18/1990,2.6731,2.6865,2.6731,2.6731,113600
10/19/1990,2.6731,2.6731,2.6462,2.6596,36800
10/22/1990,2.6731,2.6731,2.6328,2.6328,68000
10/23/1990,2.6328,2.6731,2.6328,2.6731,17600
10/24/1990,2.6865,2.7133,2.6865,2.7133,120000
10/25/1990,2.7402,2.8611,2.7402,2.8611,112800
10/26/1990,2.8477,2.888,2.8477,2.888,22400
10/29/1990,2.9014,2.9014,2.888,2.888,16000
10/30/1990,2.8745,2.888,2.8208,2.8342,29600
10/31/1990,2.8477,2.9686,2.8477,2.9014,366400
11/01/1990,2.9014,2.9014,2.888,2.9014,163200
11/02/1990,2.9014,3.0357,2.9014,3.0089,469600
11/05/1990,3.0357,3.0492,2.982,2.982,426400
11/06/1990,2.9954,2.9954,2.9417,2.9417,8800
11/07/1990,2.9417,2.9417,2.9014,2.9014,148000
11/08/1990,2.8745,2.9148,2.8745,2.9148,37600
11/09/1990,2.9014,2.9551,2.9014,2.9417,397600
11/12/1990,2.9148,2.9148,2.8611,2.8611,76800
11/13/1990,2.7133,2.7133,2.6731,2.6731,208000
11/14/1990,2.6865,2.7402,2.6731,2.7402,75200
11/15/1990,2.7133,2.7268,2.6865,2.6999,45600
11/16/1990,2.6999,2.7133,2.6596,2.7133,300800
11/19/1990,2.7133,2.7133,2.5656,2.5656,456800
11/20/1990,2.5522,2.5522,2.4447,2.5119,329600
11/21/1990,2.4984,2.5522,2.485,2.5522,32800
11/23/1990,2.5522,2.5656,2.5522,2.5522,18400
11/26/1990,2.5656,2.579,2.5522,2.5522,40000
11/27/1990,2.5656,2.5656,2.5253,2.5387,39200
11/28/1990,2.5387,2.5387,2.4984,2.5119,145600
11/29/1990,2.4984,2.4984,2.4984,2.4984,36800
11/30/1990,2.4716,2.485,2.3775,2.4178,236000
12/03/1990,2.4044,2.4044,2.2432,2.3641,366400
12/04/1990,2.3507,2.3507,2.2969,2.3372,230400
12/05/1990,2.3372,2.4044,2.3372,2.391,432000
12/06/1990,2.391,2.4178,2.3507,2.3641,248800
12/07/1990,2.3372,2.3372,2.2566,2.3372,257600
12/10/1990,2.3507,2.3507,2.3238,2.3372,179200
12/11/1990,2.3238,2.391,2.3238,2.3507,981600
12/12/1990,2.3641,2.391,2.3507,2.391,493600
12/13/1990,2.3641,2.3641,2.3372,2.3372,908000
12/14/1990,2.3372,2.391,2.2835,2.391,207200
12/17/1990,2.4044,2.4313,2.3507,2.3507,89600
12/18/1990,2.3775,2.4044,2.3238,2.3238,153600
12/19/1990,2.3238,2.3507,2.2701,2.2701,277600
12/20/1990,2.2432,2.2432,2.1895,2.2029,1007200
12/21/1990,2.1358,2.1626,2.1358,2.1492,980000
12/24/1990,2.1492,2.1895,2.1492,2.1895,222400
12/26/1990,2.2029,2.3641,2.2029,2.3641,93600
12/27/1990,2.3641,2.3641,2.3372,2.3507,51200
12/28/1990,2.3372,2.3372,2.2835,2.2835,49600
12/31/1990,2.2835,2.2835,2.176,2.2835,364800
01/02/1991,2.2566,2.2566,2.2298,2.2298,36000
01/03/1991,2.2298,2.2298,2.1358,2.1358,413600
01/04/1991,2.0955,2.0955,2.0014,2.0014,216800
01/07/1991,1.9746,1.988,1.9074,1.9477,599200
01/08/1991,1.9343,1.9477,1.8537,1.8537,679200
01/09/1991,1.8725,1.886,1.8456,1.8456,572000
01/10/1991,1.8321,1.8456,1.8052,1.8456,296000
01/11/1991,1.8187,1.9129,1.8187,1.9129,278400
01/14/1991,1.9264,1.9534,1.9129,1.9399,172800
01/15/1991,1.9399,1.9399,1.8725,1.9264,92800
01/16/1991,1.9264,1.9399,1.8725,1.8995,50400
01/17/1991,1.886,1.9399,1.7513,1.8995,1341600
01/18/1991,1.8995,1.9129,1.8591,1.886,275200
01/21/1991,1.8591,1.8591,1.7782,1.8321,550400
01/22/1991,1.8591,1.8725,1.8321,1.8321,174400
01/23/1991,1.8456,1.9534,1.8456,1.9399,837600
01/24/1991,1.9938,2.0207,1.9534,1.9668,495200
01/25/1991,1.9938,2.0477,1.9129,1.9399,817600
01/28/1991,1.9668,1.9803,1.8995,1.9264,679200
01/29/1991,1.9399,1.9534,1.9399,1.9399,99200
01/30/1991,1.9129,1.9399,1.8995,1.9264,132000
01/31/1991,1.9129,1.9129,1.8591,1.8725,384800
02/01/1991,1.8591,1.9129,1.8591,1.9129,869600
02/04/1991,1.9129,1.9668,1.8995,1.9399,961600
02/05/1991,1.9399,2.0477,1.9399,1.9668,1217600
02/06/1991,1.9668,2.1554,1.9668,2.142,1186400
02/07/1991,2.1959,2.3979,2.1959,2.3171,1224000
02/08/1991,2.2901,2.3171,2.2767,2.3036,94400
02/11/1991,2.3171,2.371,2.2767,2.3306,307200
02/12/1991,2.3575,2.3575,2.2363,2.2363,216000
02/13/1991,2.2632,2.3306,2.2632,2.3306,45600
02/14/1991,2.3171,2.3171,2.1689,2.1689,148800
02/15/1991,2.142,2.2497,2.142,2.2497,356800
02/19/1991,2.2363,2.2363,2.1689,2.1959,160800
02/20/1991,2.1959,2.2632,2.1689,2.2632,219200
02/21/1991,2.2497,2.2632,2.2363,2.2363,188000
02/22/1991,2.2363,2.2363,2.115,2.115,408000
02/25/1991,2.115,2.115,2.0072,2.0072,88800
02/26/1991,1.9938,2.0072,1.9534,1.9938,776800
02/27/1991,2.0207,2.115,2.0207,2.1015,1544000
02/28/1991,2.1285,2.2363,2.115,2.2363,578400
03/01/1991,2.2363,2.2363,2.1824,2.1959,692800
03/04/1991,2.1959,2.2497,2.1959,2.2363,555200
03/05/1991,2.2093,2.2228,2.2093,2.2228,418400
03/06/1991,2.1959,2.2363,2.1959,2.2093,180800
03/07/1991,2.2093,2.2632,2.2093,2.2632,280800
03/08/1991,2.2632,2.3979,2.2363,2.3036,442400
03/11/1991,2.3171,2.371,2.3171,2.344,116000
03/12/1991,2.371,2.371,2.3171,2.3171,163200
03/13/1991,2.3036,2.3036,2.2363,2.2363,147200
03/14/1991,2.2228,2.2363,2.1959,2.2093,184000
03/15/1991,2.1959,2.2901,2.1959,2.2632,289600
03/18/1991,2.2767,2.3171,2.2632,2.3171,136000
03/19/1991,2.2901,2.2901,2.2497,2.2632,172000
03/20/1991,2.2632,2.2901,2.2632,2.2901,71200
03/21/1991,2.3036,2.3575,2.2901,2.3575,327200
03/22/1991,2.3575,2.3575,2.3306,2.3306,93600
03/25/1991,2.344,2.344,2.2767,2.3306,115200
03/26/1991,2.3036,2.3171,2.2632,2.2901,447200
03/27/1991,2.2767,2.2767,2.2228,2.2228,86400
03/28/1991,2.2228,2.2363,2.1689,2.1689,70400
04/01/1991,2.1824,2.1824,2.115,2.115,128000
04/02/1991,2.1285,2.1285,2.0342,2.0477,367200
04/03/1991,2.0342,2.1015,1.9938,1.9938,1358400
04/04/1991,2.0207,2.0746,2.0207,2.0746,1049600
04/05/1991,2.0881,2.142,2.0881,2.142,73600
04/08/1991,2.1285,2.1285,2.1015,2.1015,24000
04/09/1991,2.0746,2.1015,2.0477,2.1015,198400
04/10/1991,2.0934,2.0934,2.0259,2.0664,198400
04/11/1991,2.0799,2.1069,2.0394,2.0799,255200
04/12/1991,2.0799,2.134,2.0664,2.134,398400
04/15/1991,2.161,2.215,2.161,2.2015,258400
04/16/1991,2.188,2.2825,2.188,2.269,468000
04/17/1991,2.2825,2.2825,2.2285,2.2285,662400
04/18/1991,2.2555,2.2825,2.2555,2.269,68800
04/19/1991,2.2555,2.269,2.215,2.2285,20000
04/22/1991,2.2285,2.2285,2.1475,2.161,263200
04/23/1991,2.1475,2.161,2.1205,2.161,69600
04/24/1991,2.161,2.161,2.134,2.161,44800
04/25/1991,2.1475,2.1475,2.134,2.134,70400
04/26/1991,2.1205,2.1205,2.0934,2.107,24000
04/29/1991,2.0934,2.0934,2.0259,2.0259,373600
04/30/1991,2.0529,2.0529,2.0124,2.0529,1024800
05/01/1991,2.0529,2.0934,2.0259,2.0934,403200
05/02/1991,2.0799,2.0799,2.0529,2.0529,714400
05/03/1991,2.0799,2.1069,2.0394,2.0664,464000
05/06/1991,2.0529,2.0529,2.0394,2.0394,11200
05/07/1991,2.0529,2.0529,1.9719,2.0259,360800
05/08/1991,2.0259,2.1205,2.0124,2.107,567200
05/09/1991,2.1205,2.134,2.0799,2.134,150400
05/10/1991,2.1205,2.1205,2.0529,2.0529,88800
05/13/1991,2.0394,2.0394,1.9719,1.9719,872000
05/14/1991,1.9719,2.0529,1.9719,1.9989,366400
05/15/1991,1.9989,2.0799,1.9989,2.0664,276000
05/16/1991,2.1205,2.134,2.0934,2.0934,404000
05/17/1991,2.0934,2.0934,2.0664,2.0799,25600
05/20/1991,2.0799,2.1069,2.0664,2.0799,121600
05/21/1991,2.1069,2.1069,2.0259,2.0529,480800
05/22/1991,2.0529,2.0664,2.0529,2.0664,31200
05/23/1991,2.0799,2.0934,2.0529,2.0799,240800
05/24/1991,2.0934,2.1205,2.0529,2.0664,160800
05/28/1991,2.0529,2.1205,2.0529,2.107,60000
05/29/1991,2.107,2.107,2.0934,2.107,334400
05/30/1991,2.1069,2.161,2.0934,2.161,521600
05/31/1991,2.188,2.269,2.188,2.269,1612000
06/03/1991,2.296,2.323,2.2555,2.269,256000
06/04/1991,2.296,2.3095,2.269,2.269,1272800
06/05/1991,2.269,2.269,2.2285,2.2285,141600
06/06/1991,2.215,2.2555,2.215,2.242,201600
06/07/1991,2.242,2.242,2.188,2.188,473600
06/10/1991,2.2015,2.215,2.188,2.188,168000
06/11/1991,2.188,2.188,2.1069,2.161,155200
06/12/1991,2.161,2.161,2.1475,2.161,51200
06/13/1991,2.161,2.161,2.1475,2.1475,1600
06/14/1991,2.134,2.134,2.134,2.134,83200
06/17/1991,2.134,2.134,2.1205,2.1205,21600
06/18/1991,2.134,2.134,2.1069,2.134,341600
06/19/1991,2.134,2.161,2.134,2.161,170400
06/20/1991,2.1069,2.1069,2.0529,2.0529,30400
06/21/1991,2.0259,2.0529,1.9989,2.0259,251200
06/24/1991,2.0394,2.0529,1.9989,2.0529,124800
06/25/1991,2.0529,2.0529,2.0394,2.0394,39200
06/26/1991,2.0124,2.0394,1.9854,1.9989,188000
06/27/1991,1.9989,2.0259,1.9719,1.9989,260800
06/28/1991,1.9989,1.9989,1.9449,1.9449,418400
07/01/1991,1.9449,1.9449,1.9044,1.9044,188800
07/02/1991,1.9179,1.9449,1.9179,1.9314,127200
07/03/1991,1.9044,1.9719,1.9044,1.9449,267200
07/05/1991,1.9449,1.9449,1.9449,1.9449,3200
07/08/1991,1.9449,1.9854,1.9449,1.9854,192800
07/09/1991,1.9773,2.0044,1.9366,1.9637,359200
07/10/1991,1.9502,1.9502,1.9366,1.9366,56000
07/11/1991,1.9502,2.0179,1.9502,2.0044,152800
07/12/1991,2.0314,2.045,1.9773,1.9908,1025600
07/15/1991,2.0179,2.0585,2.0179,2.0585,791200
07/16/1991,2.045,2.0992,2.0314,2.0992,1204800
07/17/1991,2.1262,2.2481,2.1127,2.2481,1052000
07/18/1991,2.2752,2.3158,2.2752,2.3158,304800
07/19/1991,2.3158,2.3158,2.2617,2.2752,73600
07/22/1991,2.2752,2.2752,2.221,2.2481,72000
07/23/1991,2.2617,2.2752,2.2346,2.2346,124000
07/24/1991,2.2346,2.2481,2.2346,2.2346,39200
07/25/1991,2.221,2.2346,2.221,2.221,232800
07/26/1991,2.221,2.2481,2.221,2.2481,226400
07/29/1991,2.2617,2.2617,2.2481,2.2617,6400
07/30/1991,2.2481,2.3023,2.2481,2.2752,582400
07/31/1991,2.221,2.2346,2.194,2.194,698400
08/01/1991,2.194,2.2346,2.194,2.221,248800
08/02/1991,2.2075,2.2075,2.2075,2.2075,71200
08/05/1991,2.221,2.2346,2.2075,2.221,96800
08/06/1991,2.221,2.2752,2.221,2.2481,457600
08/07/1991,2.2481,2.2752,2.2481,2.2752,733600
08/08/1991,2.2888,2.3294,2.2752,2.2888,413600
08/09/1991,2.2752,2.3023,2.2752,2.3023,111200
08/12/1991,2.3294,2.3429,2.2888,2.3023,223200
08/13/1991,2.2888,2.3294,2.2888,2.3294,118400
08/14/1991,2.3158,2.3836,2.3158,2.3836,372000
08/15/1991,2.3836,2.3836,2.3565,2.3836,369600
08/16/1991,2.37,2.37,2.3429,2.3429,490400
08/19/1991,2.3158,2.3158,2.2617,2.2617,91200
08/20/1991,2.2617,2.2752,2.2617,2.2752,22400
08/21/1991,2.2752,2.2752,2.2617,2.2752,78400
08/22/1991,2.2888,2.2888,2.221,2.2481,292800
08/23/1991,2.2481,2.3836,2.2481,2.3836,1125600
08/26/1991,2.3836,2.4106,2.37,2.3836,183200
08/27/1991,2.3836,2.4648,2.3836,2.4377,362400
08/28/1991,2.4648,2.5596,2.4513,2.5461,203200
08/29/1991,2.5325,2.6002,2.5325,2.5596,416800
08/30/1991,2.5732,2.5732,2.519,2.5325,236800
09/03/1991,2.5054,2.5054,2.4106,2.4106,230400
09/04/1991,2.3971,2.4377,2.3836,2.3971,175200
09/05/1991,2.4242,2.4513,2.4242,2.4377,309600
09/06/1991,2.4377,2.4513,2.4106,2.4513,55200
09/09/1991,2.4377,2.4648,2.4377,2.4648,8000
09/10/1991,2.4513,2.4648,2.4377,2.4648,452800
09/11/1991,2.4513,2.4648,2.4377,2.4648,145600
09/12/1991,2.4784,2.4784,2.4648,2.4648,48000
09/13/1991,2.4919,2.4919,2.4513,2.4648,366400
09/16/1991,2.4784,2.4784,2.4513,2.4648,433600
09/17/1991,2.4648,2.5054,2.4648,2.5054,648800
09/18/1991,2.519,2.5461,2.519,2.5461,136800
09/19/1991,2.5596,2.6273,2.5325,2.6273,153600
09/20/1991,2.668,2.668,2.6002,2.6273,312000
09/23/1991,2.6544,2.6544,2.5732,2.5732,113600
09/24/1991,2.5732,2.5732,2.4919,2.4919,77600
09/25/1991,2.5054,2.5054,2.4919,2.4919,7200
09/26/1991,2.519,2.5596,2.4919,2.5596,296000
09/27/1991,2.5732,2.6002,2.5596,2.5732,70400
09/30/1991,2.5596,2.5867,2.5596,2.5867,229600
10/01/1991,2.5867,2.6002,2.4784,2.4784,1317600
10/02/1991,2.4648,2.5461,2.4648,2.519,740800
10/03/1991,2.519,2.519,2.5054,2.5054,106400
10/04/1991,2.4919,2.5054,2.4784,2.5054,599200
10/07/1991,2.4919,2.5461,2.4784,2.5461,973600
10/08/1991,2.5515,2.5651,2.5244,2.5515,735200
10/09/1991,2.5515,2.5515,2.5244,2.5244,43200
10/10/1991,2.5244,2.5379,2.4972,2.5244,144000
10/11/1991,2.5379,2.5379,2.5244,2.5379,23200
10/14/1991,2.5515,2.5922,2.5515,2.5786,32000
10/15/1991,2.5922,2.6194,2.5922,2.6194,181600
10/16/1991,2.6465,2.6736,2.6058,2.6058,104000
10/17/1991,2.6058,2.6329,2.5922,2.6329,89600
10/18/1991,2.6465,2.6465,2.6058,2.6058,87200
10/21/1991,2.5922,2.5922,2.5922,2.5922,3200
10/22/1991,2.5651,2.5651,2.4972,2.4972,495200
10/23/1991,2.5651,2.5651,2.5108,2.5108,95200
10/24/1991,2.4972,2.4972,2.4701,2.4701,35200
10/25/1991,2.4429,2.4429,2.3886,2.4022,277600
10/28/1991,2.3886,2.4701,2.3886,2.4701,181600
10/29/1991,2.4836,2.4836,2.3886,2.4022,404800
10/30/1991,2.4158,2.4294,2.4158,2.4294,12800
10/31/1991,2.4429,2.4701,2.4294,2.4701,37600
11/01/1991,2.4836,2.5515,2.4701,2.5515,62400
11/04/1991,2.5379,2.6736,2.5379,2.6329,624800
11/05/1991,2.6465,2.7279,2.6465,2.7008,421600
11/06/1991,2.7279,2.7279,2.6329,2.6329,228000
11/07/1991,2.6465,2.6465,2.6058,2.6329,206400
11/08/1991,2.6194,2.6601,2.6194,2.6601,96800
11/11/1991,2.6601,2.6601,2.6329,2.6329,20000
11/12/1991,2.6058,2.6465,2.6058,2.6329,71200
11/13/1991,2.6329,2.7279,2.6329,2.7144,127200
11/14/1991,2.7144,2.7144,2.6194,2.6329,102400
11/15/1991,2.6194,2.6194,2.5108,2.5515,141600
11/18/1991,2.5515,2.5515,2.4972,2.4972,236800
11/19/1991,2.5108,2.5108,2.4429,2.4429,143200
11/20/1991,2.4294,2.4294,2.4158,2.4158,144000
11/21/1991,2.4158,2.4701,2.4158,2.4294,202400
11/22/1991,2.4158,2.4158,2.3886,2.3886,97600
11/25/1991,2.3886,2.4022,2.3886,2.4022,16800
11/26/1991,2.3886,2.3886,2.2665,2.2801,346400
11/27/1991,2.2936,2.3072,2.2801,2.2801,76800
11/29/1991,2.2936,2.3072,2.2936,2.3072,28800
12/02/1991,2.3072,2.3208,2.2529,2.2529,299200
12/03/1991,2.2529,2.3072,2.2529,2.3072,97600
12/04/1991,2.3072,2.3072,2.2801,2.2801,20800
12/05/1991,2.2801,2.3344,2.2801,2.2936,96800
12/06/1991,2.2936,2.3072,2.2936,2.2936,858400
12/09/1991,2.2801,2.2801,2.2529,2.2529,57600
12/10/1991,2.2258,2.2258,2.1579,2.1715,171200
12/11/1991,2.1851,2.2258,2.1308,2.2122,415200
12/12/1991,2.1851,2.1986,2.1851,2.1986,124000
12/13/1991,2.1986,2.1986,2.1715,2.1715,319200
12/16/1991,2.1715,2.1851,2.1579,2.1851,372800
12/17/1991,2.1851,2.1986,2.1851,2.1986,683200
12/18/1991,2.2122,2.2393,2.2122,2.2393,112800
12/19/1991,2.2258,2.2258,2.1986,2.2122,392800
12/20/1991,2.1986,2.1986,2.1715,2.1851,164800
12/23/1991,2.1715,2.1715,2.1036,2.1036,1115200
12/24/1991,2.1036,2.1851,2.0901,2.1851,107200
12/26/1991,2.1715,2.1851,2.1715,2.1715,15200
12/27/1991,2.1715,2.1715,2.1443,2.1443,48000
12/30/1991,2.1443,2.1443,2.1036,2.1172,920800
12/31/1991,2.1172,2.1579,2.1036,2.1172,116000
01/02/1992,2.1036,2.1036,2.0765,2.0765,732000
01/03/1992,2.0765,2.0765,2.0629,2.0629,277600
01/06/1992,2.0765,2.0765,2.0086,2.0222,528000
01/07/1992,2.0086,2.0086,1.8593,1.8593,584000
01/08/1992,1.8458,1.9136,1.8322,1.8458,692800
01/09/1992,1.8458,1.8865,1.8322,1.8865,348000
01/10/1992,1.8729,1.9408,1.8593,1.9408,840800
01/13/1992,1.9408,2.0222,1.9408,1.9951,456000
01/14/1992,1.9951,2.0086,1.9272,1.9272,281600
01/15/1992,1.9408,1.9951,1.9408,1.9815,377600
01/16/1992,1.9815,2.0222,1.9815,2.0222,80800
01/17/1992,2.0493,2.1036,2.0493,2.1036,47200
01/20/1992,2.1036,2.1986,2.1036,2.1851,91200
01/21/1992,2.1986,2.2122,2.1851,2.1851,578400
01/22/1992,2.1851,2.1851,2.1579,2.1579,300000
01/23/1992,2.1443,2.1715,2.1308,2.1308,313600
01/24/1992,2.1308,2.1308,2.0086,2.0086,1104800
01/27/1992,1.9951,1.9951,1.9543,1.9679,292800
01/28/1992,1.9679,1.9679,1.9001,1.9001,2736800
01/29/1992,1.9136,1.9543,1.8729,1.9136,463200
01/30/1992,1.8593,1.9272,1.8593,1.9001,405600
01/31/1992,1.9136,1.9951,1.9001,1.9543,714400
02/03/1992,1.9679,1.9679,1.9272,1.9408,96800
02/04/1992,1.9272,1.9408,1.9001,1.9136,355200
02/05/1992,1.9136,1.9136,1.8729,1.8865,604000
02/06/1992,1.9001,1.9001,1.8186,1.8186,492800
02/07/1992,1.805,1.9272,1.805,1.9272,704000
02/10/1992,1.9408,2.0358,1.9408,2.0222,782400
02/11/1992,2.0222,2.0358,2.0086,2.0086,241600
02/12/1992,2.0086,2.0222,1.9815,2.0086,446400
02/13/1992,2.0086,2.0086,1.9951,1.9951,161600
02/14/1992,1.9951,2.0222,1.9815,2.0222,190400
02/18/1992,2.0086,2.0086,1.9815,1.9951,504800
02/19/1992,1.9815,1.9815,1.9679,1.9679,20800
02/20/1992,1.9679,1.9951,1.9679,1.9951,260800
02/21/1992,1.9951,2.0222,1.9951,2.0086,311200
02/24/1992,2.0222,2.0358,2.0086,2.0086,249600
02/25/1992,2.0086,2.0086,1.9815,1.9815,144000
02/26/1992,1.9679,1.9679,1.9543,1.9679,835200
02/27/1992,1.9543,1.9951,1.9543,1.9679,67200
02/28/1992,1.9408,1.9679,1.9408,1.9408,321600
03/02/1992,1.9543,1.9951,1.9543,1.9543,588800
03/03/1992,1.9679,1.9815,1.9543,1.9543,608800
03/04/1992,1.9408,1.9543,1.9408,1.9543,488000
03/05/1992,1.9679,1.9815,1.9679,1.9815,607200
03/06/1992,1.9815,1.9951,1.9815,1.9815,404800
03/09/1992,1.9815,2.0222,1.9815,2.0222,348000
03/10/1992,2.0222,2.0901,2.0222,2.0765,348000
03/11/1992,2.0901,2.0901,2.0765,2.0901,376000
03/12/1992,2.1172,2.1172,2.0901,2.0901,347200
03/13/1992,2.1172,2.1443,2.1036,2.1443,138400
03/16/1992,2.1715,2.1715,2.0901,2.0901,122400
03/17/1992,2.1172,2.1172,2.1036,2.1172,569600
03/18/1992,2.1036,2.1036,2.0901,2.0901,46400
03/19/1992,2.1172,2.1172,2.0629,2.0901,394400
03/20/1992,2.1443,2.1579,2.1308,2.1443,232000
03/23/1992,2.1715,2.2122,2.1715,2.1715,545600
03/24/1992,2.1715,2.2393,2.1715,2.2258,618400
03/25/1992,2.2393,2.2393,2.2258,2.2393,116800
03/26/1992,2.2665,2.3751,2.2665,2.3344,959200
03/27/1992,2.2801,2.3072,2.2665,2.2801,236800
03/30/1992,2.2801,2.2801,2.2665,2.2801,324800
03/31/1992,2.2936,2.3072,2.2936,2.3072,307200
04/01/1992,2.3072,2.3072,2.2665,2.2665,172800
04/02/1992,2.2665,2.2665,2.2393,2.2529,878400
04/03/1992,2.2258,2.2258,2.2122,2.2258,109600
04/06/1992,2.2393,2.3751,2.2393,2.3751,336000
04/07/1992,2.3751,2.3751,2.3344,2.3344,612000
04/08/1992,2.3208,2.3208,2.2801,2.2801,771200
04/09/1992,2.2719,2.3943,2.2719,2.3943,170400
04/10/1992,2.3807,2.3943,2.3807,2.3807,213600
04/13/1992,2.4079,2.4215,2.3943,2.4079,141600
04/14/1992,2.4215,2.4488,2.4215,2.4488,228000
04/15/1992,2.4488,2.4624,2.4488,2.4624,312000
04/16/1992,2.4488,2.4624,2.4488,2.4488,39200
04/20/1992,2.4488,2.5168,2.4488,2.5168,245600
04/21/1992,2.544,2.544,2.5032,2.5304,337600
04/22/1992,2.5168,2.5168,2.5032,2.5032,8800
04/23/1992,2.5032,2.5984,2.476,2.5032,1366400
04/24/1992,2.6392,2.7617,2.612,2.612,687200
04/27/1992,2.6664,2.6936,2.6392,2.6528,511200
04/28/1992,2.6528,2.6528,2.6256,2.6392,234400
04/29/1992,2.6528,2.6528,2.6392,2.6392,237600
04/30/1992,2.6528,2.6664,2.6392,2.6528,1008800
05/01/1992,2.6392,2.6528,2.6392,2.6528,146400
05/04/1992,2.6664,2.68,2.6664,2.6664,251200
05/05/1992,2.6528,2.68,2.6528,2.68,532000
05/06/1992,2.68,2.68,2.6256,2.6256,792800
05/07/1992,2.6256,2.6256,2.5848,2.5848,61600
05/08/1992,2.612,2.612,2.5576,2.5712,42400
05/11/1992,2.5712,2.5712,2.5304,2.5304,91200
05/12/1992,2.544,2.544,2.3943,2.4352,1191200
05/13/1992,2.4352,2.4352,2.4079,2.4079,261600
05/14/1992,2.4079,2.476,2.3399,2.476,1236800
05/15/1992,2.4624,2.5304,2.4488,2.5168,509600
05/18/1992,2.5304,2.6256,2.5304,2.612,431200
05/19/1992,2.612,2.6528,2.5712,2.6528,572000
05/20/1992,2.6664,2.6936,2.6664,2.6936,200800
05/21/1992,2.68,2.748,2.68,2.6936,946400
05/22/1992,2.6936,2.748,2.68,2.7344,230400
05/26/1992,2.7344,2.7753,2.7208,2.7753,1300800
05/27/1992,2.7889,2.8297,2.7208,2.7208,1122400
05/28/1992,2.7344,2.7344,2.68,2.7208,627200
05/29/1992,2.7208,2.7208,2.68,2.6936,368800
06/01/1992,2.68,2.7617,2.68,2.7617,348800
06/02/1992,2.7344,2.748,2.7208,2.7344,108000
06/03/1992,2.748,2.7753,2.7208,2.748,1278400
06/04/1992,2.7208,2.7344,2.7208,2.7344,1169600
06/05/1992,2.748,2.7753,2.7344,2.7753,816800
06/08/1992,2.8025,2.9385,2.8025,2.8841,1822400
06/09/1992,2.8841,2.9113,2.8569,2.8841,2077600
06/10/1992,2.8841,2.8841,2.8025,2.8569,778400
06/11/1992,2.8569,2.9657,2.8569,2.9657,438400
06/12/1992,2.9385,2.9385,2.9113,2.9113,2042400
06/15/1992,2.8977,2.8977,2.8705,2.8841,2438400
06/16/1992,2.8977,2.8977,2.8705,2.8705,660800
06/17/1992,2.8841,2.8841,2.8025,2.8161,673600
06/18/1992,2.8025,2.8433,2.8025,2.8161,948800
06/19/1992,2.8297,2.8433,2.8161,2.8161,417600
06/22/1992,2.7889,2.8025,2.7889,2.7889,568000
06/23/1992,2.7889,2.8025,2.7889,2.7889,518400
06/24/1992,2.8025,2.8025,2.7617,2.8025,224000
06/25/1992,2.8025,2.8025,2.7208,2.7208,307200
06/26/1992,2.7208,2.7344,2.7072,2.7344,629600
06/29/1992,2.7208,2.7753,2.7208,2.7617,1169600
06/30/1992,2.7753,2.7753,2.748,2.7753,1156800
07/01/1992,2.8025,2.8297,2.7889,2.8297,694400
07/02/1992,2.8569,2.8705,2.8297,2.8569,2007200
07/06/1992,2.8841,2.8977,2.8705,2.8841,771200
07/07/1992,2.8841,2.9249,2.8841,2.8977,655200
07/08/1992,2.8977,2.9113,2.8841,2.8977,480800
07/09/1992,2.9168,2.944,2.9031,2.9304,424000
07/10/1992,2.9577,2.9577,2.9031,2.9031,568800
07/13/1992,2.9031,2.9304,2.9031,2.9304,624800
07/14/1992,2.9577,3.1621,2.9577,3.1212,627200
07/15/1992,3.1349,3.1485,3.0667,3.0803,465600
07/16/1992,3.0531,3.0531,2.9577,2.9849,143200
07/17/1992,2.9986,3.0122,2.9849,2.9986,45600
07/20/1992,2.9986,3.0122,2.9577,2.9577,645600
07/21/1992,2.9577,2.9849,2.9577,2.9713,224000
07/22/1992,2.9713,3.0394,2.9713,3.0394,235200
07/23/1992,3.0531,3.0667,3.0258,3.0531,112000
07/24/1992,3.0531,3.1485,3.0531,3.1485,329600
07/27/1992,3.1485,3.1485,3.1076,3.1349,66400
07/28/1992,3.1349,3.1349,3.0803,3.1076,91200
07/29/1992,3.1076,3.1212,3.094,3.1212,84800
07/30/1992,3.1076,3.1757,3.1076,3.1757,565600
07/31/1992,3.1757,3.1894,3.1621,3.1757,500800
08/03/1992,3.1621,3.2303,3.1621,3.2303,492000
08/04/1992,3.2166,3.2439,3.2166,3.2439,398400
08/05/1992,3.1349,3.1349,2.944,2.9713,268800
08/06/1992,2.835,2.8486,2.7669,2.835,1166400
08/07/1992,2.835,3.0667,2.835,3.0667,996000
08/10/1992,3.0667,3.1076,3.0531,3.094,88000
08/11/1992,3.094,3.1076,3.094,3.094,2608000
08/12/1992,3.1076,3.1349,3.1076,3.1349,92800
08/13/1992,3.1621,3.2575,3.1485,3.2575,684800
08/14/1992,3.2984,3.3529,3.2575,3.2712,1344000
08/17/1992,3.2439,3.2439,3.203,3.2166,1498400
08/18/1992,3.203,3.2166,3.1212,3.1349,823200
08/19/1992,3.0531,3.2166,3.0531,3.1076,844800
08/20/1992,3.1621,3.1757,3.1076,3.1349,7611200
08/21/1992,3.1485,3.1757,3.1349,3.1349,1631200
08/24/1992,3.1212,3.1485,3.1212,3.1212,1412000
08/25/1992,3.1212,3.2439,3.1212,3.203,1002400
08/26/1992,3.2166,3.2712,3.2166,3.2712,1988000
08/27/1992,3.2575,3.312,3.2439,3.2984,872800
08/28/1992,3.3257,3.4347,3.3257,3.4347,1732800
08/31/1992,3.4075,3.4756,3.3529,3.3802,1392800
09/01/1992,3.3802,3.4347,3.3666,3.4074,740000
09/02/1992,3.4347,3.4483,3.3802,3.3938,458400
09/03/1992,3.4075,3.4211,3.3938,3.4211,617600
09/04/1992,3.4211,3.462,3.4211,3.4483,190400
09/08/1992,3.4483,3.571,3.4483,3.5574,1150400
09/09/1992,3.5574,3.571,3.5437,3.571,660000
09/10/1992,3.571,3.5846,3.5437,3.5574,809600
09/11/1992,3.5574,3.5846,3.5437,3.5846,549600
09/14/1992,3.6119,3.6392,3.5846,3.5983,684000
09/15/1992,3.5983,3.6119,3.5846,3.5846,557600
09/16/1992,3.5846,3.6392,3.571,3.5983,723200
09/17/1992,3.5983,3.7346,3.5983,3.68,565600
09/18/1992,3.6528,3.7618,3.6528,3.7618,668000
09/21/1992,3.7755,3.7891,3.7755,3.7891,808000
09/22/1992,3.7618,3.8163,3.7482,3.8027,662400
09/23/1992,3.8163,3.8981,3.8027,3.8163,898400
09/24/1992,3.83,3.9118,3.83,3.8981,1256800
09/25/1992,3.8572,3.8709,3.6664,3.7073,1837600
09/28/1992,3.7073,3.7073,3.5846,3.5983,1749600
09/29/1992,3.6664,3.6937,3.6392,3.6937,276800
09/30/1992,3.68,3.6937,3.6255,3.6255,330400
10/01/1992,3.6119,3.6119,3.5165,3.5165,378400
10/02/1992,3.5301,3.5574,3.5029,3.5301,772800
10/05/1992,3.5301,3.5301,3.4483,3.462,312000
10/06/1992,3.462,3.462,3.4075,3.4347,885600
10/07/1992,3.4483,3.5029,3.4483,3.4756,649600
10/08/1992,3.4674,3.5493,3.4674,3.4947,266400
10/09/1992,3.4674,3.522,3.4128,3.4401,112000
10/12/1992,3.4401,3.4538,3.4401,3.4538,351200
10/13/1992,3.4401,3.4538,3.3991,3.4401,412000
10/14/1992,3.4401,3.4538,3.4265,3.4401,341600
10/15/1992,3.4401,3.4401,3.4128,3.4128,205600
10/16/1992,3.4265,3.563,3.4265,3.5493,1151200
10/19/1992,3.5493,3.7677,3.5493,3.7404,756000
10/20/1992,3.7268,3.7268,3.6722,3.6858,209600
10/21/1992,3.6722,3.6722,3.6176,3.6312,104800
10/22/1992,3.6176,3.6176,3.4538,3.4538,365600
10/23/1992,3.4674,3.4674,3.4401,3.4538,101600
10/26/1992,3.4538,3.5084,3.4538,3.4947,396800
10/27/1992,3.4811,3.4811,3.3309,3.3719,318400
10/28/1992,3.3719,3.3719,3.249,3.3445,920800
10/29/1992,3.3445,3.4128,3.3445,3.3582,348000
10/30/1992,3.3855,3.3855,3.3309,3.3309,143200
11/02/1992,3.3445,3.3855,3.3445,3.3855,156800
11/03/1992,3.3855,3.3855,3.2763,3.2763,296800
11/04/1992,3.2899,3.3036,3.1944,3.1944,464000
11/05/1992,3.1671,3.1671,3.0306,3.0442,1245600
11/06/1992,3.0852,3.208,3.0852,3.1944,1823200
11/09/1992,3.1671,3.1944,3.0579,3.0988,1322400
11/10/1992,3.1125,3.1671,3.1125,3.1671,1669600
11/11/1992,3.1671,3.1671,3.1125,3.1125,551200
11/12/1992,3.1671,3.1807,3.1125,3.1261,1320800
11/13/1992,3.1534,3.1807,3.1398,3.1671,324000
11/16/1992,3.1534,3.1944,3.1534,3.1944,257600
11/17/1992,3.1671,3.1807,3.1671,3.1671,304000
11/18/1992,3.1671,3.1807,3.1671,3.1807,693600
11/19/1992,3.1534,3.1807,3.0306,3.0579,821600
11/20/1992,3.0852,3.1398,3.0852,3.1398,536800
11/23/1992,3.1125,3.208,3.1125,3.1671,660000
11/24/1992,3.1534,3.1534,3.1261,3.1398,503200
11/25/1992,3.1261,3.1534,3.1261,3.1398,96000
11/27/1992,3.1398,3.1671,3.1261,3.1671,230400
11/30/1992,3.1671,3.1671,3.0852,3.0988,539200
12/01/1992,3.0988,3.0988,3.0852,3.0852,1116800
12/02/1992,3.0852,3.1261,3.0852,3.1261,721600
12/03/1992,3.1125,3.1125,2.9896,3.0033,1191200
12/04/1992,3.0033,3.0579,2.9896,3.0579,1249600
12/07/1992,3.0442,3.0988,3.0442,3.0579,167200
12/08/1992,3.0579,3.0715,3.0169,3.0442,580000
12/09/1992,3.0579,3.0988,3.0442,3.0852,374400
12/10/1992,3.0988,3.1534,3.0442,3.1534,1601600
12/11/1992,3.1944,3.2353,3.1944,3.208,151200
12/14/1992,3.208,3.208,3.1534,3.1944,920000
12/15/1992,3.1807,3.1807,3.1534,3.1671,406400
12/16/1992,3.1534,3.1671,3.1398,3.1398,402400
12/17/1992,3.1534,3.1534,3.1125,3.1125,52800
12/18/1992,3.1398,3.1398,3.1261,3.1398,295200
12/21/1992,3.1261,3.1261,3.0988,3.0988,488000
12/22/1992,3.1125,3.1125,3.0852,3.0988,960800
12/23/1992,3.0988,3.0988,3.0715,3.0715,1008000
12/24/1992,3.0988,3.1398,3.0852,3.1398,655200
12/28/1992,3.1261,3.1261,3.0852,3.0988,97600
12/29/1992,3.0988,3.1398,3.0852,3.1125,596000
12/30/1992,3.1261,3.1261,3.0988,3.0988,639200
12/31/1992,3.1125,3.2217,3.1125,3.208,376000
01/04/1993,3.2217,3.249,3.1534,3.1534,597600
01/05/1993,3.1534,3.2217,3.1261,3.2217,715200
01/06/1993,3.2217,3.2217,3.1398,3.1534,928800
01/07/1993,3.1534,3.1534,3.1125,3.1261,333600
01/08/1993,3.1261,3.1261,3.0306,3.0306,1617600
01/11/1993,3.0508,3.0508,2.9551,2.9687,410400
01/12/1993,2.9687,2.9824,2.9414,2.9824,269600
01/13/1993,2.9824,3.0508,2.9414,3.0371,826400
01/14/1993,3.0098,3.0235,2.9277,2.9277,619200
01/15/1993,2.9551,2.9961,2.9414,2.9687,1232800
01/18/1993,2.9687,2.9687,2.9414,2.9551,460000
01/19/1993,2.9414,3.0508,2.9414,3.0235,1157600
01/20/1993,3.0235,3.0508,3.0098,3.0371,132800
01/21/1993,3.0098,3.0645,3.0098,3.0645,272800
01/22/1993,3.0782,3.1466,3.0645,3.1466,540800
01/25/1993,3.1329,3.2423,3.1329,3.2287,969600
01/26/1993,3.3381,3.3928,3.3108,3.3108,1224000
01/27/1993,3.2697,3.2971,3.2423,3.2834,636000
01/28/1993,3.2971,3.4202,3.2834,3.4202,773600
01/29/1993,3.4202,3.5023,3.4065,3.4749,492800
02/01/1993,3.5023,3.5707,3.5023,3.557,1876800
02/02/1993,3.5433,3.5844,3.5433,3.5844,1044000
02/03/1993,3.5844,3.8169,3.5844,3.7622,1448000
02/04/1993,3.7896,3.8853,3.7896,3.8853,1330400
02/05/1993,3.8853,3.9537,3.8853,3.9401,1606400
02/08/1993,3.9401,3.9401,3.9127,3.9401,1975200
02/09/1993,3.9401,3.9401,3.858,3.8717,756000
02/10/1993,3.8717,3.899,3.8169,3.8306,800000
02/11/1993,3.8169,3.9401,3.8169,3.9264,971200
02/12/1993,3.9264,3.9264,3.9127,3.9264,932000
02/16/1993,3.9127,3.9127,3.8033,3.8033,292800
02/17/1993,3.8169,3.858,3.8033,3.8443,632800
02/18/1993,3.8717,3.9264,3.8717,3.8853,604800
02/19/1993,3.8853,3.9537,3.8717,3.9401,3408800
02/22/1993,3.9401,4.0358,3.9401,3.9948,1140000
02/23/1993,4.0222,4.0222,3.9401,3.9811,664000
02/24/1993,3.9537,3.9537,3.9127,3.9264,499200
02/25/1993,3.9264,3.9264,3.8169,3.8169,259200
02/26/1993,3.8443,3.8717,3.8169,3.858,128000
03/01/1993,3.8853,3.9674,3.8717,3.8853,1396000
03/02/1993,3.9127,3.9264,3.8853,3.899,332800
03/03/1993,3.9127,4.241,3.9127,4.1863,4088800
03/04/1993,4.159,4.1863,4.0632,4.1453,913600
03/05/1993,4.1316,4.1453,4.1042,4.1042,335200
03/08/1993,4.1179,4.2,4.1179,4.1863,472000
03/09/1993,4.2,4.2,4.159,4.1863,324000
03/10/1993,4.1863,4.2137,4.1453,4.2137,199200
03/11/1993,4.2137,4.3095,4.2,4.2821,213600
03/12/1993,4.3095,4.3095,4.2,4.241,702400
03/15/1993,4.241,4.2684,4.241,4.2684,209600
03/16/1993,4.2547,4.2684,4.241,4.2547,316800
03/17/1993,4.2684,4.3642,4.2547,4.3642,136800
03/18/1993,4.3505,4.3779,4.3095,4.3779,444000
03/19/1993,4.3642,4.3779,4.3505,4.3505,300800
03/22/1993,4.3642,4.3779,4.3505,4.3642,640800
03/23/1993,4.3915,4.3915,4.3505,4.3505,100800
03/24/1993,4.3505,4.4463,4.3505,4.3505,574400
03/25/1993,4.2958,4.3095,4.241,4.241,1020000
03/26/1993,4.241,4.3095,4.2137,4.2958,753600
03/29/1993,4.3095,4.3642,4.3095,4.3642,589600
03/30/1993,4.3779,4.4052,4.3779,4.4052,663200
03/31/1993,4.4052,4.4052,4.3505,4.3915,558400
04/01/1993,4.4052,4.4052,4.3642,4.3779,537600
04/02/1993,4.3368,4.3368,4.2547,4.2821,240800
04/05/1993,4.2958,4.2958,4.2684,4.2958,292800
04/06/1993,4.2958,4.2958,4.2684,4.2684,604800
04/07/1993,4.241,4.2684,4.2137,4.2684,860000
04/08/1993,4.2613,4.275,4.2613,4.275,24000
04/12/1993,4.2613,4.3572,4.2613,4.3572,325600
04/13/1993,4.3572,4.412,4.2476,4.275,1076800
04/14/1993,4.2887,4.2887,4.2476,4.2476,447200
04/15/1993,4.275,4.3161,4.2202,4.2202,231200
04/16/1993,4.2339,4.2476,4.2065,4.2476,356800
04/19/1993,4.2339,4.2887,4.2339,4.275,173600
04/20/1993,4.3024,4.4394,4.3024,4.3709,1133600
04/21/1993,4.3983,4.3983,4.275,4.275,185600
04/22/1993,4.2476,4.2476,4.0969,4.0969,335200
04/23/1993,4.0969,4.0969,3.9187,3.9461,786400
04/26/1993,3.9735,4.0695,3.9598,4.0558,367200
04/27/1993,4.0832,4.0832,4.0558,4.0695,108000
04/28/1993,4.0558,4.0695,4.0558,4.0695,189600
04/29/1993,4.0832,4.1654,4.0558,4.1654,383200
04/30/1993,4.1654,4.3572,4.1654,4.3161,779200
05/03/1993,4.3435,4.3709,4.3435,4.3435,249600
05/04/1993,4.3161,4.3435,4.3024,4.3161,1332800
05/05/1993,4.3161,4.3298,4.3161,4.3161,65600
05/06/1993,4.3161,4.3846,4.3161,4.3298,664800
05/07/1993,4.3161,4.3572,4.3024,4.3161,186400
05/10/1993,4.3298,4.3298,4.2202,4.2202,828000
05/11/1993,4.1928,4.3435,4.1928,4.3298,1120800
05/12/1993,4.3298,4.3709,4.3024,4.3435,852000
05/13/1993,4.3024,4.4668,4.3024,4.4394,702400
05/14/1993,4.4394,4.6175,4.4394,4.5353,931200
05/17/1993,4.5353,4.5627,4.5216,4.5627,390400
05/18/1993,4.5627,4.6723,4.5627,4.6449,340800
05/19/1993,4.6586,4.6586,4.549,4.5901,412800
05/20/1993,4.5764,4.6038,4.5764,4.5901,216000
05/21/1993,4.5901,4.5901,4.5627,4.5764,400000
05/24/1993,4.6038,4.6038,4.5764,4.5901,496000
05/25/1993,4.549,4.6038,4.5353,4.549,400800
05/26/1993,4.549,4.5627,4.5216,4.5627,188000
05/27/1993,4.5627,4.6586,4.5627,4.6586,511200
05/28/1993,4.6449,4.6586,4.6312,4.6586,473600
06/01/1993,4.686,4.7683,4.6723,4.7408,619200
06/02/1993,4.7408,4.9327,4.7408,4.8779,522400
06/03/1993,4.8779,4.8779,4.8094,4.8368,403200
06/04/1993,4.8231,4.8368,4.8094,4.8231,889600
06/07/1993,4.8231,4.8368,4.8094,4.8231,482400
06/08/1993,4.8094,4.8094,4.7546,4.7683,277600
06/09/1993,4.7408,4.8231,4.7408,4.8231,262400
06/10/1993,4.8094,4.8094,4.7683,4.7683,779200
06/11/1993,4.7408,4.7408,4.5901,4.5901,606400
06/14/1993,4.5764,4.5764,4.4942,4.4942,763200
06/15/1993,4.4942,4.5216,4.4942,4.4942,288800
06/16/1993,4.5079,4.5627,4.5079,4.5627,219200
06/17/1993,4.5764,4.6723,4.5764,4.6038,193600
06/18/1993,4.6312,4.6449,4.6175,4.6175,224800
06/21/1993,4.6312,4.6997,4.6312,4.686,292800
06/22/1993,4.686,4.686,4.6175,4.6175,1112000
06/23/1993,4.6175,4.6449,4.6175,4.6449,2466400
06/24/1993,4.6449,4.6449,4.4394,4.4942,637600
06/25/1993,4.4942,4.4942,4.4805,4.4942,36000
06/28/1993,4.4942,4.5079,4.4942,4.5079,204800
06/29/1993,4.4805,4.4942,4.3709,4.4257,648000
06/30/1993,4.4394,4.4668,4.412,4.4668,552000
07/01/1993,4.4531,4.4531,4.3983,4.4257,376800
07/02/1993,4.4394,4.4394,4.3983,4.4257,100000
07/06/1993,4.4257,4.4668,4.3846,4.3846,437600
07/07/1993,4.3572,4.4531,4.3572,4.4531,1369600
07/08/1993,4.4531,4.549,4.4531,4.549,955200
07/09/1993,4.5419,4.6105,4.5419,4.6105,1352000
07/12/1993,4.6379,4.6928,4.6379,4.6654,900000
07/13/1993,4.6654,4.6654,4.6379,4.6379,100000
07/14/1993,4.6379,4.6654,4.6379,4.6379,538400
07/15/1993,4.6654,4.6654,4.5831,4.6105,338400
07/16/1993,4.6105,4.6242,4.5968,4.6105,147200
07/19/1993,4.6517,4.6517,4.6105,4.6379,417600
07/20/1993,4.6105,4.6654,4.6105,4.6654,713600
07/21/1993,4.6654,4.6928,4.6654,4.6654,395200
07/22/1993,4.6654,4.6654,4.6379,4.6517,314400
07/23/1993,4.6517,4.6654,4.6105,4.6654,341600
07/26/1993,4.6928,4.6928,4.6517,4.6517,196000
07/27/1993,4.6242,4.6379,4.5831,4.6105,191200
07/28/1993,4.6105,4.6517,4.5968,4.6242,356800
07/29/1993,4.6242,4.6654,4.6105,4.6517,98400
07/30/1993,4.6654,4.6791,4.6654,4.6791,57600
08/02/1993,4.6791,4.8026,4.6654,4.8026,1029600
08/03/1993,4.8163,4.8986,4.8163,4.8849,356000
08/04/1993,4.8712,4.9673,4.8712,4.9398,400000
08/05/1993,4.9261,4.9535,4.9261,4.9398,56000
08/06/1993,4.9398,4.9398,4.8986,4.9124,348800
08/09/1993,4.9261,4.9947,4.9261,4.9947,344800
08/10/1993,4.9947,5.0496,4.9947,5.0496,632800
08/11/1993,5.077,5.2691,5.077,5.2691,784800
08/12/1993,5.2691,5.4612,5.2554,5.2829,1103200
08/13/1993,5.2966,5.2966,5.2143,5.2143,226400
08/16/1993,5.2143,5.2554,5.2143,5.2554,448000
08/17/1993,5.324,5.4887,5.324,5.4887,640000
08/18/1993,5.475,5.6945,5.475,5.6396,805600
08/19/1993,5.6533,5.6808,5.5436,5.5436,424000
08/20/1993,5.5436,5.6671,5.5436,5.6671,914400
08/23/1993,5.6808,5.8866,5.6671,5.8866,964800
08/24/1993,5.8866,5.8866,5.7357,5.7631,704000
08/25/1993,5.7631,5.7768,5.6533,5.6671,753600
08/26/1993,5.6671,5.6671,5.4887,5.5299,817600
08/27/1993,5.5161,5.5161,5.2966,5.3789,627200
08/30/1993,5.3789,5.4887,5.3652,5.4612,529600
08/31/1993,5.475,5.5573,5.4201,5.5161,888000
09/01/1993,5.5161,5.6122,5.5161,5.5985,388800
09/02/1993,5.5985,5.5985,5.5161,5.5161,286400
09/03/1993,5.5161,5.5573,5.5161,5.5299,135200
09/07/1993,5.5299,5.5573,5.3789,5.3789,236800
09/08/1993,5.3789,5.3789,5.228,5.228,388800
09/09/1993,5.228,5.2554,5.2005,5.2417,533600
09/10/1993,5.2417,5.2554,5.228,5.2554,121600
09/13/1993,5.2554,5.2966,5.2005,5.2005,472800
09/14/1993,5.228,5.2417,5.1868,5.2143,633600
09/15/1993,5.2143,5.3103,5.2005,5.2691,994400
09/16/1993,5.2691,5.2966,5.2691,5.2691,152800
09/17/1993,5.2417,5.2417,5.1731,5.2143,127200
09/20/1993,5.2143,5.2417,5.2143,5.2417,248000
09/21/1993,5.2417,5.2966,5.2417,5.2829,218400
09/22/1993,5.2691,5.2966,5.2417,5.2417,99200
09/23/1993,5.2554,5.2554,5.228,5.2554,232800
09/24/1993,5.2417,5.2691,5.228,5.2417,357600
09/27/1993,5.228,5.2691,5.228,5.2554,441600
09/28/1993,5.2554,5.2554,5.2005,5.2143,326400
09/29/1993,5.2143,5.6671,5.2143,5.6671,1200800
09/30/1993,5.6671,5.818,5.6671,5.818,755200
10/01/1993,5.7906,5.9003,5.7906,5.9003,599200
10/04/1993,5.9003,5.9278,5.8317,5.8317,248000
10/05/1993,5.8454,5.8454,5.7768,5.7768,122400
10/06/1993,5.7768,5.7768,5.7082,5.7357,114400
10/07/1993,5.7082,5.7082,5.6533,5.6945,224000
10/08/1993,5.7011,5.7011,5.6324,5.6462,245600
10/11/1993,5.6462,5.6462,5.495,5.495,288000
10/12/1993,5.495,5.495,5.3851,5.3851,272800
10/13/1993,5.3439,5.3714,5.2478,5.2615,826400
10/14/1993,5.3577,5.3851,5.2752,5.3027,388000
10/15/1993,5.2752,5.2752,5.1241,5.1653,707200
10/18/1993,5.1653,5.1653,5.028,5.0554,719200
10/19/1993,5.0554,5.1653,4.8219,5.1241,1467200
10/20/1993,5.0967,5.0967,4.6708,4.6708,1626400
10/21/1993,4.7807,5.0005,4.7807,4.8356,3216000
10/22/1993,4.8356,4.8356,4.7257,4.7257,928800
10/25/1993,4.7257,4.767,4.6433,4.6433,901600
10/26/1993,4.6433,4.6708,4.396,4.4235,1536800
10/27/1993,4.451,4.5609,4.451,4.5609,1416000
10/28/1993,4.5609,4.7944,4.5609,4.7944,1215200
10/29/1993,4.767,4.8082,4.6845,4.6983,412800
11/01/1993,4.712,4.8219,4.6983,4.7944,379200
11/02/1993,4.7944,4.9043,4.7944,4.8906,553600
11/03/1993,4.9318,4.9868,4.9043,4.9455,540800
11/04/1993,4.973,5.0417,4.9455,4.9455,345600
11/05/1993,4.9455,4.9455,4.8631,4.8906,112800
11/08/1993,4.8906,4.8906,4.8082,4.8082,207200
11/09/1993,4.8082,4.8082,4.5609,4.5884,542400
11/10/1993,4.6158,4.6433,4.5884,4.6296,191200
11/11/1993,4.6433,4.7532,4.5746,4.5884,564800
11/12/1993,4.5746,4.5746,4.451,4.5746,1202400
11/15/1993,4.5746,4.6021,4.5197,4.5197,675200
11/16/1993,4.3686,4.3823,4.2861,4.3411,827200
11/17/1993,4.396,4.5746,4.3411,4.5746,1617600
11/18/1993,4.5746,4.712,4.5334,4.6571,463200
11/19/1993,4.6158,4.6296,4.5884,4.6296,85600
11/22/1993,4.6158,4.6158,4.4647,4.4647,173600
11/23/1993,4.4922,4.5884,4.4647,4.4785,697600
11/24/1993,4.4922,4.5334,4.4922,4.5334,556800
11/26/1993,4.5059,4.5059,4.4235,4.4235,94400
11/29/1993,4.3686,4.3686,4.2449,4.2449,1270400
11/30/1993,4.2587,4.2724,4.2037,4.2449,457600
12/01/1993,4.2724,4.3273,4.2449,4.2724,316000
12/02/1993,4.2587,4.3136,4.2587,4.2724,429600
12/03/1993,4.2861,4.3136,4.2861,4.2861,142400
12/06/1993,4.2861,4.3136,4.2587,4.2999,308800
12/07/1993,4.2861,4.3548,4.2724,4.3136,528800
12/08/1993,4.2999,4.2999,4.2587,4.2724,89600
12/09/1993,4.2724,4.2724,4.1488,4.2037,69600
12/10/1993,4.2174,4.2587,4.2174,4.2449,271200
12/13/1993,4.2724,4.2724,4.1488,4.19,102400
12/14/1993,4.2174,4.2312,4.1625,4.2312,620800
12/15/1993,4.19,4.19,4.1488,4.1625,128000
12/16/1993,4.1762,4.2587,4.1762,4.2037,565600
12/17/1993,4.2174,4.2312,4.1625,4.1762,200800
12/20/1993,4.1488,4.1488,3.874,3.9702,927200
12/21/1993,3.9976,3.9976,3.7504,3.9015,880000
12/22/1993,3.9152,4.1762,3.874,4.1625,676000
12/23/1993,4.135,4.2174,4.135,4.1762,176000
12/27/1993,4.1213,4.2999,4.1213,4.2724,1060000
12/28/1993,4.2999,4.3273,4.2312,4.2312,629600
12/29/1993,4.2449,4.2999,4.2449,4.2724,648000
12/30/1993,4.2587,4.2724,4.2449,4.2724,270400
12/31/1993,4.2724,4.2861,4.2449,4.2861,112800
01/03/1994,4.2861,4.2861,4.2449,4.2861,332000
01/04/1994,4.2587,4.2999,4.2587,4.2999,202400
01/05/1994,4.3686,4.6158,4.3686,4.5746,800000
01/06/1994,4.6021,4.8219,4.6021,4.7944,999200
01/07/1994,4.8082,4.8082,4.7532,4.7807,704800
01/10/1994,4.7735,4.9661,4.7735,4.9661,573600
01/11/1994,4.9249,4.9249,4.801,4.8423,1028800
01/12/1994,4.8423,4.8698,4.746,4.7598,296000
01/13/1994,4.7598,4.7735,4.6772,4.6772,10779200
01/14/1994,4.6497,4.691,4.5397,4.5397,1295200
01/17/1994,4.6222,4.6772,4.5947,4.6635,1098400
01/18/1994,4.6772,4.7873,4.6772,4.7873,851200
01/19/1994,4.8148,4.9386,4.8148,4.8561,1249600
01/20/1994,4.8561,4.8973,4.7185,4.7185,487200
01/21/1994,4.746,4.7735,4.7047,4.7323,354400
01/24/1994,4.746,4.7598,4.6772,4.6772,408800
01/25/1994,4.6772,4.691,4.6635,4.6772,284000
01/26/1994,4.6772,4.7598,4.636,4.7323,873600
01/27/1994,4.7323,4.8973,4.7323,4.8836,1322400
01/28/1994,4.8423,4.8561,4.8286,4.8423,303200
01/31/1994,4.8698,4.9936,4.8561,4.8561,787200
02/01/1994,4.8836,4.9524,4.8836,4.9386,700800
02/02/1994,4.9111,5.2275,4.9111,5.0762,999200
02/03/1994,5.1174,5.1174,5.0487,5.0624,155200
02/04/1994,5.0899,5.1312,5.0211,5.0349,1171200
02/07/1994,4.9936,4.9936,4.9386,4.9524,363200
02/08/1994,4.9524,5.0624,4.9249,5.0487,355200
02/09/1994,5.0487,5.0487,4.9249,4.9799,272800
02/10/1994,4.9799,4.9799,4.8423,4.8423,944800
02/11/1994,4.8698,5.0349,4.8423,5.0074,212800
02/14/1994,5.0074,5.0074,4.7598,4.8423,335200
02/15/1994,4.8148,4.8698,4.8148,4.8423,137600
02/16/1994,4.8148,4.8286,4.7323,4.7323,541600
02/17/1994,4.746,4.8148,4.7048,4.7048,538400
02/18/1994,4.7323,4.746,4.691,4.7048,437600
02/22/1994,4.7323,4.7598,4.7185,4.7323,83200
02/23/1994,4.7047,4.7873,4.7047,4.7735,152000
02/24/1994,4.7735,4.7873,4.7323,4.7873,108800
02/25/1994,4.8423,4.8973,4.8148,4.8148,848800
02/28/1994,4.8148,4.8148,4.7323,4.7323,57600
03/01/1994,4.7598,4.7598,4.7047,4.7323,180000
03/02/1994,4.7047,4.7047,4.6497,4.6772,310400
03/03/1994,4.691,4.7047,4.6635,4.6772,92800
03/04/1994,4.6635,4.7598,4.6635,4.746,196800
03/07/1994,4.7598,4.7598,4.7048,4.7048,268800
03/08/1994,4.6772,4.691,4.6085,4.6085,516800
03/09/1994,4.5809,4.5809,4.3746,4.4296,609600
03/10/1994,4.4159,4.4434,4.3333,4.3471,894400
03/11/1994,4.3608,4.4296,4.3333,4.4159,410400
03/14/1994,4.4159,4.5672,4.4159,4.5534,308800
03/15/1994,4.5947,4.691,4.5947,4.6497,446400
03/16/1994,4.636,4.6635,4.6222,4.6497,458400
03/17/1994,4.636,4.8561,4.636,4.8286,423200
03/18/1994,4.8698,5.0074,4.8423,5.0074,879200
03/21/1994,5.0349,5.0487,4.9936,5.0349,813600
03/22/1994,5.0074,5.1174,5.0074,5.1037,1078400
03/23/1994,5.0074,5.0074,4.9524,4.9936,722400
03/24/1994,4.9249,4.9799,4.8973,4.9524,674400
03/25/1994,4.9386,4.9936,4.9386,4.9524,510400
03/28/1994,4.9386,4.9386,4.7873,4.7873,1590400
03/29/1994,4.7735,4.7735,4.6222,4.6222,617600
03/30/1994,4.6085,4.691,4.4984,4.6772,567200
03/31/1994,4.6772,4.7048,4.636,4.7048,148800
04/04/1994,4.6772,4.6772,4.6222,4.636,445600
04/05/1994,4.6497,4.691,4.6085,4.6222,940000
04/06/1994,4.6772,4.7323,4.5947,4.7323,240000
04/07/1994,4.7323,4.7873,4.7048,4.7048,574400
04/08/1994,4.691,4.7048,4.6772,4.7048,169600
04/11/1994,4.6838,4.6838,4.6425,4.67,698400
04/12/1994,4.6838,4.7665,4.6838,4.7389,1101600
04/13/1994,4.7389,4.794,4.7251,4.794,604000
04/14/1994,4.7527,4.8767,4.7251,4.8767,1280800
04/15/1994,4.8767,5.1797,4.8216,5.1797,826400
04/18/1994,5.1246,5.1246,5.0144,5.1109,1331200
04/19/1994,5.0971,5.1246,5.0558,5.0558,704000
04/20/1994,5.042,5.042,5.0282,5.042,727200
04/21/1994,5.0282,5.0833,5.0282,5.0695,480000
04/22/1994,5.0558,5.1109,5.042,5.0833,332000
04/25/1994,5.0833,5.2348,5.0558,5.2348,498400
04/26/1994,5.2348,5.2624,5.2348,5.2624,1096000
04/28/1994,5.2486,5.3037,5.2348,5.2486,856800
04/29/1994,5.2348,5.2348,5.1935,5.2348,535200
05/02/1994,5.2073,5.2486,5.1935,5.2486,652000
05/03/1994,5.2348,5.2348,5.166,5.1797,560800
05/04/1994,5.1797,5.2348,5.1797,5.2348,358400
05/05/1994,5.2624,5.2624,5.2211,5.2211,66400
05/06/1994,5.2211,5.4002,5.2211,5.3726,343200
05/09/1994,5.3864,5.3864,5.3175,5.3588,453600
05/10/1994,5.4139,5.4139,5.3726,5.3726,632800
05/11/1994,5.3726,5.3864,5.3175,5.3175,187200
05/12/1994,5.3313,5.4277,5.3175,5.4139,806400
05/13/1994,5.3864,5.4002,5.3864,5.4002,257600
05/16/1994,5.4139,5.4139,5.3864,5.3864,293600
05/17/1994,5.3726,5.3726,5.1935,5.2486,1044000
05/18/1994,5.2624,5.2762,5.2073,5.2624,1417600
05/19/1994,5.2762,5.2762,5.1935,5.1935,205600
05/20/1994,5.2073,5.2073,5.1246,5.1384,309600
05/23/1994,5.1109,5.1246,5.0833,5.0833,208800
05/24/1994,5.0695,5.0695,5.0282,5.0282,287200
05/25/1994,5.042,5.042,4.9869,4.9869,179200
05/26/1994,4.9318,4.9593,4.8629,4.8905,840800
05/27/1994,4.9042,4.9318,4.8767,4.918,70400
05/31/1994,4.8905,4.918,4.8491,4.8491,752800
06/01/1994,4.8491,4.8905,4.8491,4.8629,480800
06/02/1994,4.8491,4.8767,4.8216,4.8216,600000
06/03/1994,4.8078,4.8078,4.7114,4.7802,136800
06/06/1994,4.8491,4.8491,4.8078,4.8216,132800
06/07/1994,4.8216,4.918,4.8216,4.9042,863200
06/08/1994,4.9042,4.9042,4.794,4.8216,276800
06/09/1994,4.794,4.794,4.7389,4.7389,304800
06/10/1994,4.7389,4.918,4.7389,4.918,165600
06/13/1994,4.918,5.0282,4.918,5.0144,736800
06/14/1994,5.0282,5.0695,5.0282,5.0695,476000
06/15/1994,5.0695,5.0971,5.042,5.0558,292000
06/16/1994,5.042,5.0971,5.042,5.0971,132000
06/17/1994,5.0695,5.2073,5.0695,5.2073,384000
06/20/1994,5.2348,5.2348,5.0695,5.1522,174800
06/21/1994,5.0971,5.2073,5.0971,5.2073,166400
06/22/1994,5.2624,5.2624,5.1797,5.2073,52800
06/23/1994,5.2624,5.2624,5.0695,5.0695,197200
06/24/1994,5.0695,5.0695,4.9318,5.042,143200
06/27/1994,5.0144,5.0695,4.9593,5.042,136800
06/28/1994,4.9869,5.042,4.9318,5.042,190800
06/29/1994,5.042,5.0695,4.9869,5.0695,94800
06/30/1994,5.0144,5.0695,4.9318,5.0695,440400
07/01/1994,5.0695,5.0695,4.9593,4.9869,150400
07/05/1994,5.0144,5.0144,4.8491,4.8491,72400
07/06/1994,4.8491,5.0144,4.8216,5.0144,182800
07/07/1994,5.042,5.042,4.9318,4.9318,36000
07/08/1994,4.9042,4.9318,4.8491,4.8491,24000
07/11/1994,4.8833,4.9109,4.8557,4.9109,51600
07/12/1994,4.9109,4.9385,4.8557,4.9109,98800
07/13/1994,4.9385,4.9937,4.773,4.8557,277200
07/14/1994,4.8833,4.8833,4.8006,4.8006,72800
07/15/1994,4.773,4.773,4.7178,4.7454,68800
07/18/1994,4.8006,4.8282,4.6902,4.8282,261600
07/19/1994,4.8006,4.8006,4.7454,4.7454,143200
07/20/1994,4.773,4.773,4.6902,4.6902,31600
07/21/1994,4.5798,4.7178,4.5798,4.7178,230800
07/22/1994,4.6902,4.6902,4.5798,4.6074,37600
07/25/1994,4.635,4.635,4.4419,4.4419,187200
07/26/1994,4.4695,4.4695,4.3591,4.3867,230000
07/27/1994,4.4143,4.4419,4.3315,4.3591,551200
07/28/1994,4.3591,4.4143,4.3591,4.4143,342800
07/29/1994,4.4143,4.4143,4.3867,4.3867,209600
08/01/1994,4.3591,4.4143,4.3591,4.4143,620000
08/02/1994,4.3867,4.4143,4.3591,4.4143,216400
08/03/1994,4.3867,4.4419,4.3315,4.4143,430800
08/04/1994,4.3867,4.4695,4.3591,4.4143,156400
08/05/1994,4.3867,4.4143,4.2212,4.2212,233200
08/08/1994,4.2764,4.3315,4.2488,4.2764,731600
08/09/1994,4.2488,4.4143,4.2212,4.4143,1479200
08/10/1994,4.4695,4.5247,4.4419,4.4695,600000
08/11/1994,4.4419,4.4971,4.3867,4.3867,326800
08/12/1994,4.3867,4.4419,4.3591,4.4143,558400
08/15/1994,4.4143,4.4695,4.3867,4.3867,71600
08/16/1994,4.4143,4.4143,4.3591,4.3591,300800
08/17/1994,4.3591,4.4143,4.3315,4.3867,148800
08/18/1994,4.3867,4.3867,4.3315,4.3591,228400
08/19/1994,4.3591,4.3729,4.3315,4.3315,330400
08/22/1994,4.3591,4.3591,4.2488,4.2488,137200
08/23/1994,4.304,4.3315,4.2212,4.2764,459200
08/24/1994,4.304,4.4419,4.304,4.3591,956000
08/25/1994,4.3867,4.3867,4.1936,4.2212,773200
08/26/1994,4.2488,4.304,4.1108,4.2488,1071600
08/29/1994,4.304,4.304,4.0832,4.166,1677600
08/30/1994,4.166,4.2488,4.1384,4.2488,976800
08/31/1994,4.2488,4.3315,4.1936,4.2488,1103600
09/01/1994,4.2212,4.304,4.2212,4.2764,967600
09/02/1994,4.3315,4.3591,4.2764,4.3591,250400
09/06/1994,4.3315,4.4419,4.304,4.4419,397200
09/07/1994,4.4695,4.635,4.4695,4.5798,1347600
09/08/1994,4.5247,4.8006,4.5247,4.8006,1925200
09/09/1994,4.7454,4.7454,4.5247,4.5247,1384800
09/12/1994,4.5798,4.6074,4.5247,4.5247,572800
09/13/1994,4.5523,4.5798,4.5247,4.5523,136400
09/14/1994,4.5247,4.635,4.5247,4.635,378800
09/15/1994,4.635,4.6902,4.6074,4.635,1040800
09/16/1994,4.6626,4.7454,4.635,4.7454,429600
09/19/1994,4.7454,4.7454,4.635,4.635,374400
09/20/1994,4.5798,4.5798,4.4143,4.5247,248400
09/21/1994,4.5247,4.5247,4.3591,4.4143,303200
09/22/1994,4.4695,4.4695,4.4143,4.4143,68000
09/23/1994,4.4695,4.6074,4.4695,4.5798,456000
09/26/1994,4.5523,4.635,4.5523,4.635,168800
09/27/1994,4.6074,4.6074,4.5523,4.5798,271200
09/28/1994,4.5798,4.6074,4.5523,4.5523,45600
09/29/1994,4.5798,4.5798,4.5247,4.5523,135200
09/30/1994,4.5798,4.5798,4.4695,4.4971,63600
10/03/1994,4.4971,4.5247,4.4695,4.4695,100000
10/04/1994,4.4971,4.4971,4.3867,4.3867,256800
10/05/1994,4.3867,4.4419,4.3867,4.4419,100400
10/06/1994,4.4695,4.5247,4.4419,4.4695,187200
10/07/1994,4.5038,4.6972,4.5038,4.6695,220000
10/10/1994,4.6695,4.7524,4.6695,4.6972,344000
10/11/1994,4.6972,4.7524,4.6972,4.6972,328800
10/12/1994,4.6419,4.6419,4.559,4.559,155600
10/13/1994,4.6143,4.6695,4.5866,4.6419,285600
10/14/1994,4.6419,4.6419,4.5866,4.6419,151200
10/17/1994,4.6972,4.6972,4.6419,4.6419,88000
10/18/1994,4.6419,4.7524,4.6419,4.7524,153200
10/19/1994,4.7248,4.8077,4.7248,4.7248,236000
10/20/1994,4.6972,4.7248,4.6143,4.6419,174000
10/21/1994,4.5866,4.6419,4.5866,4.6143,66800
10/24/1994,4.6419,4.7248,4.5866,4.6972,72800
10/25/1994,4.6972,4.7248,4.5866,4.6419,243200
10/26/1994,4.6419,4.7801,4.6143,4.7801,512800
10/27/1994,4.7524,4.9735,4.7524,4.8906,1548800
10/28/1994,4.8629,5.0287,4.8353,5.0011,638000
10/31/1994,4.9735,4.9735,4.8629,4.8906,102000
11/01/1994,4.8906,4.9182,4.8353,4.9182,71200
11/02/1994,4.8906,4.8906,4.8077,4.8353,349600
11/03/1994,4.8629,4.9182,4.8353,4.8906,54000
11/04/1994,4.8353,4.8906,4.8353,4.8353,237600
11/07/1994,4.8629,4.8629,4.8077,4.8077,145600
11/08/1994,4.7801,4.8077,4.7524,4.7801,126800
11/09/1994,4.8077,4.8353,4.8077,4.8077,328400
11/10/1994,4.8077,4.8353,4.8077,4.8077,60800
11/11/1994,4.8077,4.8353,4.7248,4.7248,80800
11/14/1994,4.6972,4.6972,4.6143,4.6419,125600
11/15/1994,4.6419,4.6695,4.6143,4.6695,166400
11/16/1994,4.6143,4.6419,4.559,4.559,154800
11/17/1994,4.5038,4.5038,4.338,4.3932,990400
11/18/1994,4.338,4.338,4.0893,4.2274,1564800
11/21/1994,4.2551,4.2827,4.1722,4.1998,789600
11/22/1994,4.1446,4.1722,4.0893,4.1446,559600
11/23/1994,4.1722,4.1722,3.9788,4.0617,952400
11/25/1994,4.034,4.0617,4.0064,4.0064,45600
11/28/1994,4.0617,4.0617,3.9511,4.0064,1295600
11/29/1994,4.0064,4.0893,3.9511,4.0617,1277200
11/30/1994,4.0893,4.0893,4.0064,4.0064,410400
12/01/1994,4.0064,4.1169,3.9788,4.0893,507600
12/02/1994,4.0893,4.1446,4.0893,4.0893,588000
12/05/1994,4.0617,4.1169,3.8683,3.8683,1013600
12/06/1994,3.8683,3.9235,3.8683,3.8683,664400
12/07/1994,3.8683,4.034,3.8406,4.034,218400
12/08/1994,4.0064,4.2551,4.0064,4.1446,552800
12/09/1994,4.0893,4.0893,4.034,4.0617,588400
12/12/1994,4.0893,4.1446,4.0893,4.1169,519200
12/13/1994,4.1169,4.2274,4.1169,4.1998,408000
12/14/1994,4.2274,4.3932,4.2274,4.3656,529200
12/15/1994,4.3932,4.3932,4.2551,4.2827,116000
12/16/1994,4.2827,4.3103,4.2551,4.2827,312800
12/19/1994,4.2827,4.2827,4.1998,4.2551,426800
12/20/1994,4.1998,4.2551,4.0893,4.1169,305200
12/21/1994,4.1446,4.1446,4.0617,4.0893,634400
12/22/1994,4.1169,4.1169,4.0064,4.0064,284000
12/23/1994,4.034,4.0617,4.0064,4.034,29600
12/27/1994,4.0617,4.0617,3.9235,3.9788,209600
12/28/1994,3.9788,4.0617,3.9788,4.0617,228800
12/29/1994,4.1169,4.2551,4.1169,4.1722,221200
12/30/1994,4.1722,4.2274,4.1446,4.1446,150400
01/03/1995,4.1998,4.2274,4.1169,4.1998,129600
01/04/1995,4.1998,4.2551,4.1446,4.1722,68400
01/05/1995,4.1169,4.1446,4.0617,4.1169,260000
01/06/1995,4.1446,4.1446,3.9788,4.034,404800
01/09/1995,4.013,4.0407,3.9576,3.9576,613600
01/10/1995,3.93,3.93,3.8193,3.8193,289600
01/11/1995,3.8193,3.9023,3.8193,3.9023,124800
01/12/1995,3.8746,3.93,3.8193,3.8193,374400
01/13/1995,3.8193,3.9023,3.7916,3.8746,66800
01/16/1995,3.8193,3.8331,3.7916,3.8193,480800
01/17/1995,3.8193,3.93,3.8193,3.9023,437600
01/18/1995,3.9023,4.0684,3.9023,4.0407,606000
01/19/1995,4.0407,4.0407,3.9853,3.9853,248000
01/20/1995,4.013,4.013,3.9853,4.013,76400
01/23/1995,3.9576,3.9853,3.8746,3.8746,128800
01/24/1995,3.8746,4.0407,3.8746,4.013,345600
01/25/1995,4.013,4.013,3.9577,3.9853,129600
01/26/1995,3.9853,4.096,3.9853,4.096,145200
01/27/1995,4.0407,4.0684,3.9853,4.013,512000
01/30/1995,4.013,4.013,3.93,3.9576,193200
01/31/1995,3.93,4.013,3.93,3.93,186400
02/01/1995,3.93,3.9853,3.93,3.9576,46000
02/02/1995,3.9576,3.9853,3.93,3.9576,41600
02/03/1995,3.9853,4.013,3.93,3.9853,243600
02/06/1995,4.096,4.2621,4.0407,4.2067,651200
02/07/1995,4.2621,4.2621,4.1514,4.1514,437200
02/08/1995,4.1791,4.2621,4.1791,4.2067,549600
02/09/1995,4.2344,4.2344,4.1514,4.1514,278800
02/10/1995,4.1791,4.2344,4.1514,4.2344,243600
02/13/1995,4.2621,4.3451,4.2621,4.2898,264800
02/14/1995,4.2898,4.2898,4.2067,4.2898,137600
02/15/1995,4.2898,4.4005,4.2621,4.3728,277200
02/16/1995,4.3728,4.4558,4.3728,4.4281,477600
02/17/1995,4.4281,4.5388,4.4281,4.5388,261200
02/21/1995,4.5388,4.5388,4.5112,4.5388,92400
02/22/1995,4.5112,4.5388,4.4835,4.5112,214400
02/23/1995,4.5388,4.5665,4.4835,4.5665,348800
02/24/1995,4.5665,4.5665,4.5112,4.5388,281200
02/27/1995,4.5388,4.5665,4.5112,4.5665,381600
02/28/1995,4.5942,4.6219,4.5665,4.6219,322400
03/01/1995,4.5942,4.5942,4.5665,4.5665,70800
03/02/1995,4.5665,4.6495,4.5665,4.6495,218800
03/03/1995,4.6495,4.6772,4.6219,4.6495,259600
03/06/1995,4.6495,4.6495,4.5665,4.6219,236400
03/07/1995,4.6495,4.6495,4.5388,4.5388,405200
03/08/1995,4.5665,4.6772,4.5388,4.6219,442800
03/09/1995,4.6495,4.6772,4.5942,4.6772,179600
03/10/1995,4.6495,4.6495,4.5665,4.5665,170400
03/13/1995,4.5942,4.6219,4.5665,4.5942,100800
03/14/1995,4.5942,4.6495,4.5942,4.6495,101600
03/15/1995,4.6495,4.7326,4.6495,4.7049,317200
03/16/1995,4.6772,4.871,4.6772,4.8156,635600
03/17/1995,4.7879,4.871,4.7049,4.8156,492800
03/20/1995,4.7879,4.871,4.6772,4.7326,426800
03/21/1995,4.7049,4.7049,4.6495,4.6495,159600
03/22/1995,4.7049,4.7603,4.6772,4.7049,349200
03/23/1995,4.7326,4.8156,4.7049,4.7879,279600
03/24/1995,4.7879,4.7879,4.6772,4.7049,696000
03/27/1995,4.7326,4.871,4.7049,4.871,314400
03/28/1995,4.871,4.9263,4.871,4.9263,268800
03/29/1995,4.9263,5.037,4.9263,4.9817,458000
03/30/1995,5.0093,5.2031,5.0093,5.2031,414400
03/31/1995,5.2307,5.5075,5.2307,5.4521,1336800
04/03/1995,5.4521,5.4521,5.2861,5.2861,1253600
04/04/1995,5.2861,5.2861,5.1754,5.2031,666000
04/05/1995,5.2031,5.2861,5.1754,5.2307,1044800
04/06/1995,5.2031,5.2031,5.0647,5.0647,704000
04/07/1995,5.0436,5.099,4.9882,4.9882,227600
04/10/1995,4.9605,5.099,4.9605,5.099,525600
04/11/1995,5.1268,5.1268,5.0436,5.099,668400
04/12/1995,5.099,5.1268,5.0713,5.1268,110400
04/13/1995,5.1545,5.2099,5.099,5.099,191600
04/17/1995,5.1268,5.1545,5.099,5.099,133200
04/18/1995,5.099,5.099,4.9328,4.9328,805200
04/19/1995,4.9605,4.9882,4.9051,4.9882,182400
04/20/1995,4.9882,5.1268,4.9882,5.1268,356000
04/21/1995,5.1545,5.487,5.1545,5.4039,1894000
04/24/1995,5.4316,5.487,5.2653,5.2653,940800
04/25/1995,5.2099,5.2376,5.1822,5.1822,103200
04/26/1995,5.2099,5.2099,5.0713,5.1268,144000
04/27/1995,5.1268,5.1268,5.0159,5.0159,390800
04/28/1995,5.0713,5.0713,5.0436,5.0713,266400
05/01/1995,5.099,5.1268,5.0713,5.099,529200
05/02/1995,5.099,5.099,5.0436,5.099,406400
05/03/1995,5.099,5.1545,5.099,5.099,199600
05/04/1995,5.099,5.099,5.0436,5.0713,215200
05/05/1995,5.0436,5.099,5.0159,5.0159,289200
05/08/1995,5.0159,5.0436,4.9882,5.0159,224000
05/09/1995,5.0159,5.1545,4.9882,5.1545,509200
05/10/1995,5.1268,5.2653,5.1268,5.2653,706400
05/11/1995,5.2376,5.2376,5.1268,5.1545,222000
05/12/1995,5.1545,5.1545,5.099,5.1268,38800
05/15/1995,5.1545,5.2099,5.1268,5.2099,279600
05/16/1995,5.2376,5.2653,5.1822,5.1822,43200
05/17/1995,5.1822,5.1822,5.1268,5.1545,295600
05/18/1995,5.1545,5.1545,5.0159,5.0713,107600
05/19/1995,5.0713,5.099,5.0713,5.099,130800
05/22/1995,5.099,5.099,5.0436,5.0436,64000
05/23/1995,5.0713,5.2376,5.0713,5.2099,340800
05/24/1995,5.2099,5.4039,5.1822,5.4039,449200
05/25/1995,5.3485,5.4316,5.3207,5.3762,798400
05/26/1995,5.3762,5.3762,5.2653,5.293,177600
05/30/1995,5.2653,5.3485,5.2653,5.3485,303600
05/31/1995,5.3762,5.3762,5.3207,5.3762,254800
06/01/1995,5.3762,5.4039,5.3485,5.3485,26000
06/02/1995,5.3762,5.4039,5.2653,5.293,201600
06/05/1995,5.3207,5.3207,5.293,5.3207,137600
06/06/1995,5.3207,5.3207,5.2099,5.2376,53200
06/07/1995,5.2653,5.2653,5.1545,5.1545,307600
06/08/1995,5.1545,5.1545,5.099,5.1268,242000
06/09/1995,5.1268,5.1545,5.099,5.1268,652000
06/12/1995,5.1268,5.1268,5.0713,5.099,188000
06/13/1995,5.0436,5.0713,5.0436,5.0713,119200
06/14/1995,5.1268,5.1268,5.0713,5.1268,300400
06/15/1995,5.099,5.1545,5.0713,5.1545,186800
06/16/1995,5.1545,5.1545,5.0436,5.0436,190000
06/19/1995,5.0159,5.0713,4.9605,5.0436,399600
06/20/1995,5.0713,5.0713,4.7388,4.7388,788000
06/21/1995,4.7388,4.7388,4.6002,4.6279,494400
06/22/1995,4.6279,4.6279,4.4894,4.5725,762800
06/23/1995,4.6002,4.7388,4.6002,4.7111,2558400
06/26/1995,4.6834,4.7665,4.6557,4.7388,352400
06/27/1995,4.7111,4.8219,4.7111,4.7942,496800
06/28/1995,4.7665,4.7665,4.6279,4.6557,1011200
06/29/1995,4.6557,4.6557,4.6002,4.6002,250400
06/30/1995,4.6279,4.8219,4.6279,4.8219,653600
07/03/1995,4.7942,4.8496,4.7388,4.8496,317600
07/05/1995,4.8219,4.8219,4.6834,4.6834,124000
07/06/1995,4.6557,4.6834,4.6279,4.6557,680800
07/07/1995,4.6557,4.6557,4.6279,4.6557,272400
07/10/1995,4.6834,4.7111,4.5448,4.5448,638400
07/11/1995,4.5448,4.6834,4.434,4.5725,582000
07/12/1995,4.6069,4.6902,4.6069,4.6624,335600
07/13/1995,4.7734,4.829,4.6347,4.6347,817600
07/14/1995,4.6624,4.6902,4.5792,4.6069,286000
07/17/1995,4.6069,4.6624,4.5792,4.6347,460400
07/18/1995,4.6347,4.6902,4.6347,4.6902,77600
07/19/1995,4.6624,4.6902,4.6069,4.6624,132000
07/20/1995,4.6624,4.7734,4.6624,4.6902,379200
07/21/1995,4.6902,4.7734,4.6347,4.7457,248000
07/24/1995,4.7179,4.8012,4.7179,4.7734,176400
07/25/1995,4.8012,4.8567,4.8012,4.829,344000
07/26/1995,4.8012,4.8012,4.7457,4.7457,244000
07/27/1995,4.6902,4.7734,4.6347,4.6902,758000
07/28/1995,4.7179,4.7734,4.6624,4.7734,111600
07/31/1995,4.7457,4.8289,4.7457,4.8012,217200
08/01/1995,4.7734,4.7734,4.6069,4.6347,532800
08/02/1995,4.6347,4.6624,4.6069,4.6347,302000
08/03/1995,4.6069,4.7457,4.5514,4.7457,552400
08/04/1995,4.7457,4.7457,4.6902,4.7457,558800
08/07/1995,4.7734,4.8012,4.7457,4.7734,101600
08/08/1995,4.8012,4.8289,4.7457,4.7457,305200
08/09/1995,4.8012,4.8012,4.7179,4.7179,703200
08/10/1995,4.7179,4.7457,4.6069,4.6069,166000
08/11/1995,4.5792,4.7179,4.5792,4.7179,349600
08/14/1995,4.7457,4.7457,4.6624,4.6624,134400
08/15/1995,4.7179,4.7457,4.6624,4.6624,108800
08/16/1995,4.6347,4.6347,4.5514,4.6347,242000
08/17/1995,4.6069,4.7179,4.6069,4.6902,371600
08/18/1995,4.6902,4.8845,4.6902,4.8012,542400
08/21/1995,4.8567,4.8845,4.8012,4.8012,575600
08/22/1995,4.829,4.9122,4.829,4.9122,362400
08/23/1995,4.94,5.0787,4.94,4.9955,317600
08/24/1995,4.9677,4.9955,4.8567,4.8845,2007200
08/25/1995,4.8845,4.9122,4.8845,4.8845,160000
08/28/1995,4.8845,4.94,4.8567,4.9122,280000
08/29/1995,4.9122,4.94,4.8845,4.9122,56400
08/30/1995,4.9955,5.0232,4.9955,5.0232,290400
08/31/1995,5.051,5.1897,5.051,5.162,116800
09/01/1995,5.1897,5.3007,5.1897,5.3007,431200
09/05/1995,5.3007,5.3562,5.2452,5.3562,545200
09/06/1995,5.3007,5.3285,5.2452,5.3285,415600
09/07/1995,5.3285,5.3562,5.1342,5.3562,284000
09/08/1995,5.3562,5.4118,5.273,5.273,248000
09/11/1995,5.3007,5.3562,5.273,5.3562,230800
09/12/1995,5.3285,5.4673,5.2452,5.4673,312400
09/13/1995,5.4395,5.4395,5.3562,5.384,547600
09/14/1995,5.3562,5.4118,5.273,5.4118,348000
09/15/1995,5.384,5.495,5.384,5.495,221200
09/18/1995,5.4673,5.6338,5.4395,5.5228,490000
09/19/1995,5.4673,5.495,5.3285,5.4673,504800
09/20/1995,5.4395,5.4395,5.3285,5.3285,284800
09/21/1995,5.384,5.384,5.273,5.3562,451200
09/22/1995,5.3562,5.3562,5.1342,5.2175,143600
09/25/1995,5.1897,5.1897,5.1065,5.1342,183200
09/26/1995,5.1342,5.1342,5.0232,5.0232,232000
09/27/1995,5.051,5.1065,4.9955,5.1065,229200
09/28/1995,5.162,5.3007,4.9955,4.9955,263600
09/29/1995,4.9677,4.9677,4.829,4.829,635600
10/02/1995,4.8567,5.051,4.829,4.9677,548400
10/03/1995,4.94,5.051,4.94,5.0232,304400
10/04/1995,4.9955,5.0232,4.94,5.0232,230800
10/05/1995,4.9955,4.9955,4.8845,4.9122,76800
10/06/1995,4.8845,4.94,4.8845,4.94,259200
10/09/1995,4.9677,4.9677,4.8845,4.8845,48000
10/10/1995,4.8567,4.8567,4.7734,4.7734,109600
10/11/1995,4.7734,4.8012,4.7457,4.7457,166000
10/12/1995,4.7802,4.9469,4.7524,4.8913,620000
10/13/1995,4.8913,4.9747,4.8913,4.9191,227200
10/16/1995,4.9191,4.9191,4.8079,4.8635,188800
10/17/1995,4.8357,4.8913,4.8079,4.8913,398400
10/18/1995,4.8357,4.8635,4.669,4.669,1966400
10/19/1995,4.6412,4.7246,4.6412,4.6412,1503600
10/20/1995,4.669,4.669,4.5578,4.5578,333600
10/23/1995,4.5856,4.5856,4.4467,4.4467,608000
10/24/1995,4.4467,4.4467,4.3633,4.3911,1186800
10/25/1995,4.3911,4.3911,4.1965,4.1965,658400
10/26/1995,4.2243,4.2799,4.1687,4.1965,439600
10/27/1995,4.1965,4.3355,4.1965,4.3355,352000
10/30/1995,4.3911,4.4467,4.3911,4.4189,646800
10/31/1995,4.4467,4.4744,4.4189,4.4467,314800
11/01/1995,4.4467,4.4744,4.4467,4.4467,390800
11/02/1995,4.4189,4.4467,4.3911,4.3911,42800
11/03/1995,4.3355,4.4189,4.3355,4.4189,165600
11/06/1995,4.4189,4.4189,4.3633,4.3633,63600
11/07/1995,4.3911,4.4744,4.3911,4.4744,476400
11/08/1995,4.4189,4.4467,4.3355,4.4467,907200
11/09/1995,4.53,4.5856,4.4744,4.4744,1176400
11/10/1995,4.4744,4.4744,4.3633,4.3633,550000
11/13/1995,4.4189,4.53,4.3911,4.53,446800
11/14/1995,4.4744,4.5022,4.3911,4.4189,1045600
11/15/1995,4.4189,4.4744,4.4189,4.4467,228000
11/16/1995,4.4744,4.8357,4.4744,4.7802,1046400
11/17/1995,4.8079,4.8079,4.7802,4.8079,906800
11/20/1995,4.8079,4.8079,4.6134,4.6134,585600
11/21/1995,4.6412,4.7802,4.6134,4.7524,363200
11/22/1995,4.7802,4.8079,4.7524,4.8079,432800
11/24/1995,4.8079,4.8079,4.7246,4.7246,229200
11/27/1995,4.6412,4.6412,4.5578,4.6134,851200
11/28/1995,4.6134,4.6968,4.6134,4.669,315200
11/29/1995,4.6968,4.6968,4.6412,4.6412,28800
11/30/1995,4.6968,4.6968,4.6134,4.669,311200
12/01/1995,4.669,4.7524,4.669,4.6968,308400
12/04/1995,4.7246,4.7246,4.5578,4.7246,1056000
12/05/1995,4.7246,4.7802,4.7246,4.7802,461200
12/06/1995,4.8079,4.8357,4.8079,4.8357,685200
12/07/1995,4.8357,4.8913,4.8357,4.8913,720400
12/08/1995,4.8635,5.0303,4.8357,5.0303,18838800
12/11/1995,5.1692,5.2248,5.0859,5.2248,5631200
12/12/1995,5.2248,5.2526,5.1692,5.2248,2874000
12/13/1995,5.2248,5.4194,5.197,5.336,3176800
12/14/1995,5.3638,5.4194,5.2526,5.2526,2280000
12/15/1995,5.5027,5.5305,5.2248,5.336,1721200
12/18/1995,5.2804,5.3082,5.1692,5.3082,974000
12/19/1995,5.3082,5.3916,5.2248,5.3916,876000
12/20/1995,5.3916,5.5305,5.3638,5.3638,2001200
12/21/1995,5.3638,5.4472,5.336,5.3638,1896800
12/22/1995,5.4194,5.4749,5.2804,5.3638,1115600
12/26/1995,5.4194,5.4194,5.3638,5.3638,490800
12/27/1995,5.3638,5.3638,5.2804,5.2804,582000
12/28/1995,5.2526,5.4749,5.2526,5.4749,1150800
12/29/1995,5.5027,5.5027,5.2804,5.336,677200
01/02/1996,5.3916,5.4472,5.3638,5.4194,579600
01/03/1996,5.4472,5.4472,5.2248,5.3082,1148000
01/04/1996,5.3082,5.3916,5.2804,5.3082,1644000
01/05/1996,5.2804,5.4194,5.2804,5.3916,680800
01/08/1996,5.3916,5.4472,5.3916,5.4472,779200
01/09/1996,5.4749,5.4749,5.2804,5.336,948400
01/10/1996,5.336,5.3638,5.197,5.3082,516400
01/11/1996,5.1757,5.1757,5.0644,5.1479,1618400
01/12/1996,5.1201,5.1757,5.1201,5.1757,555200
01/15/1996,5.2314,5.2314,5.1201,5.1201,1159200
01/16/1996,5.1201,5.1757,5.0923,5.1201,1683200
01/17/1996,5.1201,5.1479,4.981,5.1201,2281600
01/18/1996,5.1201,5.1479,5.0923,5.1479,504000
01/19/1996,5.1757,5.2036,5.1201,5.1201,803200
01/22/1996,5.1479,5.2314,5.1479,5.2314,545600
01/23/1996,5.2036,5.2592,5.1479,5.1479,426400
01/24/1996,5.1757,5.3149,5.1479,5.2314,539600
01/25/1996,5.2314,5.3149,5.2314,5.287,693600
01/26/1996,5.2592,5.2592,5.2314,5.2314,1880000
01/29/1996,5.2592,5.3427,5.2314,5.3427,1636800
01/30/1996,5.3427,5.3705,5.3149,5.3705,970800
01/31/1996,5.3705,5.454,5.3149,5.4262,650000
02/01/1996,5.454,5.621,5.454,5.5375,2182400
02/02/1996,5.4818,5.5653,5.454,5.4818,1204000
02/05/1996,5.4262,5.4818,5.3984,5.4262,923200
02/06/1996,5.4262,5.454,5.3705,5.3705,938400
02/07/1996,5.4262,5.4818,5.3984,5.454,838800
02/08/1996,5.454,5.5653,5.454,5.5097,705600
02/09/1996,5.5097,5.5931,5.454,5.5653,1770400
02/12/1996,5.5653,5.9271,5.4818,5.8158,4923200
02/13/1996,5.8714,5.8714,5.5653,5.6488,3442800
02/14/1996,5.6766,5.8992,5.6766,5.8436,1570000
02/15/1996,5.8158,6.1775,5.8158,6.1497,1637600
02/16/1996,6.3445,6.3445,5.9271,6.0105,2182000
02/20/1996,5.8992,5.9827,5.8436,5.8992,421200
02/21/1996,5.8436,5.9827,5.8158,5.9827,1553600
02/22/1996,5.9549,6.0105,5.8714,5.9549,1300800
02/23/1996,5.9271,6.0105,5.8436,5.9827,660000
02/26/1996,5.8992,5.9271,5.8436,5.8714,556400
02/27/1996,5.8158,5.8992,5.7879,5.8714,532800
02/28/1996,5.8714,5.9827,5.7044,5.7044,2225600
02/29/1996,5.7323,5.7323,5.5097,5.5653,956000
03/01/1996,5.5653,5.6488,5.5653,5.5653,402800
03/04/1996,5.5653,5.6488,5.5097,5.621,809200
03/05/1996,5.5653,5.5653,5.4818,5.5653,574000
03/06/1996,5.5375,5.7044,5.5097,5.7044,830000
03/07/1996,5.6766,5.7044,5.621,5.6766,1132000
03/08/1996,5.5097,5.5931,5.5097,5.5375,278400
03/11/1996,5.5097,5.5097,5.4262,5.4818,1366400
03/12/1996,5.454,5.4818,5.4262,5.454,1108400
03/13/1996,5.454,5.5097,5.454,5.5097,1038800
03/14/1996,5.5653,5.7044,5.5653,5.621,2724800
03/15/1996,5.5653,5.5653,5.3427,5.3984,1051600
03/18/1996,5.4262,5.6766,5.3984,5.6766,4547200
03/19/1996,5.6766,5.7323,5.6488,5.6488,473600
03/20/1996,5.6766,5.6766,5.5097,5.5097,223600
03/21/1996,5.5097,5.5931,5.454,5.454,936800
03/22/1996,5.4818,5.5097,5.4262,5.4262,1019600
03/25/1996,5.3984,5.5931,5.3984,5.5931,907200
03/26/1996,5.5931,5.621,5.5653,5.621,216800
03/27/1996,5.7879,5.8714,5.7044,5.8158,1842000
03/28/1996,5.8158,5.9271,5.8158,5.9271,1270000
03/29/1996,5.8714,5.8992,5.8436,5.8714,1343600
04/01/1996,5.8714,5.9549,5.8436,5.9549,752800
04/02/1996,5.9827,6.1218,5.9271,6.094,1116400
04/03/1996,6.0384,6.2053,5.9827,6.1775,1519600
04/04/1996,6.1775,6.1775,6.0105,6.1218,796800
04/08/1996,6.094,6.094,5.8992,6.0662,1262800
04/09/1996,6.0662,6.1497,6.0662,6.1218,923200
04/10/1996,6.0662,6.2053,6.0384,6.1775,1358000
04/11/1996,6.1285,6.1842,6.1006,6.1285,932000
04/12/1996,6.1285,6.1285,5.8778,5.9335,1120000
04/15/1996,5.8778,6.0449,5.8499,6.017,948000
04/16/1996,6.0449,6.0449,5.9613,6.017,846000
04/17/1996,6.017,6.017,5.9335,5.9613,1494800
04/18/1996,5.9613,5.9613,5.7942,5.822,1113200
04/19/1996,5.7942,5.9613,5.7942,5.9335,884400
04/22/1996,5.9335,6.1563,5.9335,6.0728,2457600
04/23/1996,6.1842,6.2399,6.0449,6.1563,1053200
04/24/1996,6.1563,6.3792,6.1563,6.2678,1069200
04/25/1996,6.212,6.2399,6.1842,6.1842,536800
04/26/1996,6.1285,6.1842,6.0449,6.0449,486400
04/29/1996,5.9892,6.1285,5.9892,6.0449,705200
04/30/1996,6.0728,6.1285,5.8778,5.9056,779600
05/01/1996,5.9056,6.017,5.7942,5.7942,808400
05/02/1996,5.8499,5.8778,5.7663,5.8499,373600
05/03/1996,5.9056,5.9056,5.822,5.9056,680000
05/06/1996,5.8778,5.9335,5.8499,5.8499,504400
05/07/1996,5.9056,5.9335,5.4599,5.5435,1395600
05/08/1996,5.5713,5.6549,5.5156,5.5713,620400
05/09/1996,5.5713,5.6828,5.5713,5.6828,332000
05/10/1996,5.6828,5.7106,5.5713,5.627,818400
05/13/1996,5.5713,5.627,5.5435,5.5713,796000
05/14/1996,5.5713,5.5992,5.4878,5.4878,1208800
05/15/1996,5.5156,5.627,5.4321,5.627,2372400
05/16/1996,5.6549,5.6549,5.5713,5.5992,379600
05/17/1996,5.5713,5.5992,5.5156,5.5713,1017600
05/20/1996,5.5713,5.6828,5.5713,5.6549,425600
05/21/1996,5.627,5.7663,5.627,5.7385,2660400
05/22/1996,5.7385,5.7942,5.7385,5.7942,552000
05/23/1996,5.8499,6.017,5.822,5.8499,1154800
05/24/1996,5.7942,5.822,5.7385,5.7942,1701200
05/28/1996,5.822,5.822,5.6688,5.7385,554000
05/29/1996,5.7106,5.7106,5.627,5.6828,613600
05/30/1996,5.6828,5.6828,5.5713,5.627,604000
05/31/1996,5.6549,5.6828,5.5713,5.627,493200
06/03/1996,5.627,5.627,5.5992,5.627,211200
06/04/1996,5.7106,5.7663,5.6828,5.6828,654800
06/05/1996,5.7385,5.7663,5.7106,5.7385,679600
06/06/1996,5.7385,5.7385,5.5713,5.5992,278800
06/07/1996,5.5435,5.6549,5.4878,5.6549,702800
06/10/1996,5.6549,5.6549,5.627,5.627,241200
06/11/1996,5.627,5.6828,5.5992,5.627,761600
06/12/1996,5.627,5.627,5.5713,5.5992,1385200
06/13/1996,5.5992,5.5992,5.4321,5.5156,985600
06/14/1996,5.5156,5.5435,5.4878,5.4878,1093200
06/17/1996,5.4321,5.4599,5.4042,5.4042,586400
06/18/1996,5.3485,5.4599,5.3206,5.3206,1450000
06/19/1996,5.3763,5.4878,5.3763,5.4042,1416800
06/20/1996,5.4321,5.4599,5.4042,5.4321,1258400
06/21/1996,5.4321,5.4321,5.3485,5.3485,650800
06/24/1996,5.3763,5.4042,5.3206,5.3485,948000
06/25/1996,5.3763,5.5713,5.3206,5.4878,2754000
06/26/1996,5.5435,5.9056,5.5435,5.9056,5256400
06/27/1996,5.8778,6.017,5.822,6.017,4884000
06/28/1996,6.0728,6.212,6.0449,6.212,5409200
07/01/1996,6.212,6.4906,6.1563,6.4906,3778800
07/02/1996,6.3792,6.4627,6.3513,6.4349,2342000
07/03/1996,6.3513,6.4349,6.3513,6.4349,1392000
07/05/1996,6.4349,6.5185,6.3513,6.4906,753600
07/08/1996,6.4627,6.5185,6.407,6.4627,924800
07/09/1996,6.4627,6.7413,6.4627,6.6856,2440800
07/10/1996,6.6856,6.8249,6.6577,6.7413,3225600
07/11/1996,6.6644,6.7759,6.3576,6.4134,3954400
07/12/1996,6.3855,6.4413,6.3576,6.3855,1191200
07/15/1996,6.3576,6.5528,6.3297,6.3576,1718400
07/16/1996,6.3019,6.3297,5.8557,5.9394,1854400
07/17/1996,5.9672,6.2182,5.9672,5.9672,2270000
07/18/1996,6.023,6.0788,5.9394,5.9951,990400
07/19/1996,5.9672,5.9951,5.9394,5.9672,1322800
07/22/1996,5.9672,5.9672,5.8557,5.8836,1101600
07/23/1996,5.9115,6.0788,5.8278,6.0788,2303200
07/24/1996,6.023,6.023,5.9115,5.9115,327600
07/25/1996,5.9115,6.0509,5.6884,5.6884,762800
07/26/1996,5.7163,5.8557,5.7163,5.8278,462800
07/29/1996,5.7999,5.8278,5.7442,5.7999,676800
07/30/1996,5.7721,5.8278,5.5769,5.6326,1988800
07/31/1996,5.6326,5.6326,5.4653,5.5769,1733600
08/01/1996,5.5769,5.6884,5.5769,5.6326,1422800
08/02/1996,5.6326,5.7721,5.6326,5.7721,1042800
08/05/1996,5.7721,5.8836,5.6605,5.8836,503200
08/06/1996,5.8836,5.9394,5.7999,5.9394,495200
08/07/1996,6.023,6.1067,6.023,6.1067,1542800
08/08/1996,6.1067,6.1346,6.023,6.1067,767600
08/09/1996,6.1346,6.1346,5.9951,5.9951,634400
08/12/1996,6.023,6.023,5.9115,5.9115,167600
08/13/1996,5.9394,5.9672,5.9115,5.9115,389600
08/14/1996,5.9115,5.9394,5.9115,5.9394,333200
08/15/1996,5.9115,6.023,5.9115,6.023,331600
08/16/1996,5.9672,5.9951,5.9115,5.9951,329600
08/19/1996,5.9394,6.0509,5.9115,6.0509,339200
08/20/1996,6.0788,6.0788,5.9672,6.023,928800
08/21/1996,5.9951,5.9951,5.8836,5.9394,837600
08/22/1996,5.9394,5.9672,5.8836,5.9394,433200
08/23/1996,5.8836,5.9394,5.8557,5.9115,228800
08/26/1996,5.9115,5.9394,5.8557,5.9394,488000
08/27/1996,5.9115,5.9115,5.7999,5.7999,669600
08/28/1996,5.7999,5.7999,5.7721,5.7721,392800
08/29/1996,5.7721,5.7999,5.7442,5.7721,499200
08/30/1996,5.7442,5.7721,5.6884,5.7721,160800
09/03/1996,5.7999,5.8836,5.7999,5.8557,1298800
09/04/1996,5.8278,5.8278,5.7163,5.7721,356400
09/05/1996,5.7442,5.7999,5.6884,5.7442,382800
09/06/1996,5.7442,5.8836,5.6326,5.7721,2431600
09/09/1996,5.7721,5.8278,5.7163,5.7999,501200
09/10/1996,5.7999,5.8278,5.7721,5.7721,488400
09/11/1996,5.7721,5.9394,5.7721,5.8557,1305600
09/12/1996,5.8278,5.8278,5.6047,5.6326,1240800
09/13/1996,5.6326,5.6326,5.4653,5.4653,1250400
09/16/1996,5.4653,5.4653,5.3817,5.4096,1839600
09/17/1996,5.2423,5.298,5.1028,5.2423,3505600
09/18/1996,5.2701,5.4374,5.2423,5.3538,2286800
09/19/1996,5.3259,5.4374,5.3259,5.3817,2160800
09/20/1996,5.3817,5.4374,5.3817,5.3817,601200
09/23/1996,5.4096,5.4096,5.3538,5.3817,1021600
09/24/1996,5.3538,5.4096,5.2144,5.2701,1552000
09/25/1996,5.2701,5.3538,5.1586,5.3538,1691200
09/26/1996,5.3817,5.4932,5.3817,5.4653,856400
09/27/1996,5.4096,5.4374,5.3538,5.3817,1036000
09/30/1996,5.3538,5.549,5.3538,5.549,1134400
10/01/1996,5.5769,5.6326,5.5769,5.6326,956400
10/02/1996,5.6326,5.7163,5.6048,5.6884,774800
10/03/1996,5.6884,5.6884,5.6048,5.6048,691600
10/04/1996,5.6605,5.7163,5.6048,5.6048,592000
10/07/1996,5.6047,5.7442,5.5769,5.7163,1552000
10/08/1996,5.7163,5.7721,5.6605,5.6884,1220000
10/09/1996,5.6884,5.6884,5.5769,5.6326,772800
10/10/1996,5.5556,5.5556,5.3043,5.3602,2254800
10/11/1996,5.3602,5.416,5.3043,5.3043,1258800
10/14/1996,5.3043,5.3322,5.1927,5.2206,2306000
10/15/1996,5.2485,5.3602,5.2206,5.3602,1424800
10/16/1996,5.3602,5.4439,5.3322,5.4439,1880000
10/17/1996,5.4997,5.5835,5.4718,5.5835,1636400
10/18/1996,5.5835,5.7231,5.5556,5.6952,1060800
10/21/1996,5.6673,5.6952,5.5835,5.5835,722000
10/22/1996,5.5835,5.6393,5.4997,5.5277,1494400
10/23/1996,5.4997,5.4997,5.3322,5.3602,2842800
10/24/1996,5.3881,5.4439,5.3602,5.416,1593200
10/25/1996,5.4439,5.5556,5.4439,5.5556,1020000
10/28/1996,5.4997,5.5277,5.4439,5.4439,995600
10/29/1996,5.4439,5.4997,5.3881,5.4997,1533600
10/30/1996,5.4997,5.6952,5.4997,5.6952,3300400
10/31/1996,5.6952,5.8348,5.6952,5.751,1713200
11/01/1996,5.751,5.7789,5.5835,5.6114,1226800
11/04/1996,5.5835,5.6114,5.5277,5.5277,1135200
11/05/1996,5.5835,5.5835,5.5277,5.5556,730800
11/06/1996,5.5556,5.5556,5.4718,5.4718,395600
11/07/1996,5.3602,5.416,5.3602,5.3602,1647200
11/08/1996,5.416,5.4997,5.3602,5.4997,1212400
11/11/1996,5.5277,5.6114,5.4997,5.5835,1075600
11/12/1996,5.6393,5.6952,5.5835,5.5835,1186400
11/13/1996,5.6114,5.6114,5.5835,5.6114,1387200
11/14/1996,5.6114,5.6393,5.6114,5.6393,2227200
11/15/1996,5.6114,5.6673,5.5556,5.5835,1321600
11/18/1996,5.5835,5.5835,5.5277,5.5835,682000
11/19/1996,5.5835,5.7231,5.5556,5.7231,2281600
11/20/1996,6.0302,6.0581,5.8627,6.0581,3805200
11/21/1996,6.0581,6.0581,5.8906,5.9185,1956000
11/22/1996,5.9464,6.2535,5.9185,6.2256,2746800
11/25/1996,6.2814,6.3373,6.1418,6.2814,1406000
11/26/1996,6.2256,6.2535,6.1139,6.1418,826800
11/27/1996,6.086,6.1418,5.9743,5.9743,727600
11/29/1996,5.9743,6.0023,5.9464,5.9464,344000
12/02/1996,5.9743,6.0023,5.8348,5.8627,908800
12/03/1996,5.8906,6.0302,5.8627,6.0302,1007200
12/04/1996,5.9743,5.9743,5.6673,5.8068,1232400
12/05/1996,5.8627,5.9185,5.8627,5.9185,914400
12/06/1996,5.8627,5.8627,5.7789,5.7789,239600
12/09/1996,5.7231,5.7789,5.5835,5.7231,2831200
12/10/1996,5.8627,5.8906,5.751,5.8068,1900000
12/11/1996,5.8068,5.8068,5.5835,5.6393,550400
12/12/1996,5.6952,5.7231,5.5835,5.5835,944800
12/13/1996,5.5835,5.6393,5.4997,5.5835,1152000
12/16/1996,5.6393,5.751,5.6393,5.6673,1024800
12/17/1996,5.6952,5.8068,5.6393,5.7789,898400
12/18/1996,5.8068,5.8627,5.7231,5.751,1152400
12/19/1996,5.751,5.8068,5.6952,5.751,2370000
12/20/1996,5.6952,5.8348,5.6952,5.751,416400
12/23/1996,5.8906,5.9743,5.7789,5.7789,661600
12/24/1996,5.8348,5.8348,5.751,5.7789,219200
12/26/1996,5.8068,5.8348,5.7789,5.7789,368000
12/27/1996,5.7789,6.0023,5.7789,5.9185,616400
12/30/1996,5.9185,5.9464,5.8068,5.8627,1130000
12/31/1996,5.8627,5.8627,5.5277,5.6393,1435600
01/02/1997,5.5835,5.5835,5.4997,5.4997,1285600
01/03/1997,5.5277,5.6114,5.5277,5.5835,860000
01/06/1997,5.6114,5.6673,5.5556,5.6393,1424800
01/07/1997,5.6393,5.7231,5.5835,5.6952,1248400
01/08/1997,5.6673,5.751,5.6114,5.6673,1650400
01/09/1997,5.6673,5.8068,5.6393,5.751,2256800
01/10/1997,5.6952,5.9464,5.6673,5.9464,2746000
01/13/1997,5.9252,6.037,5.8972,5.9252,1457600
01/14/1997,5.9252,5.9252,5.8413,5.8693,817200
01/15/1997,5.8693,5.9252,5.8134,5.8972,1473600
01/16/1997,5.8972,5.9811,5.8972,5.9252,1504000
01/17/1997,5.9531,6.009,5.8693,5.8693,1328000
01/20/1997,5.8972,5.8972,5.5339,5.5618,3205200
01/21/1997,5.5339,5.5339,5.3942,5.478,5821600
01/22/1997,5.478,5.5898,5.3942,5.3942,4841600
01/23/1997,5.4221,5.478,5.2824,5.3103,4544000
01/24/1997,5.3103,5.3662,5.2544,5.2824,1410000
01/27/1997,5.3103,5.3383,5.2265,5.2544,1593600
01/28/1997,5.3103,5.3662,5.2265,5.2544,2160000
01/29/1997,5.2824,5.2824,5.0308,5.1426,760800
01/30/1997,5.1426,5.2265,5.1426,5.2265,3844400
01/31/1997,5.1985,5.2265,5.1426,5.1985,2356000
02/03/1997,5.2544,5.2544,5.0867,5.1147,1014400
02/04/1997,5.1147,5.1147,4.919,4.919,2916000
02/05/1997,4.9749,5.1426,4.9749,5.0588,2352800
02/06/1997,5.0308,5.1147,4.9749,4.9749,1579600
02/07/1997,5.0308,5.0588,4.7234,4.7513,2427600
02/10/1997,4.7513,4.8072,4.4718,4.4998,6024000
02/11/1997,4.5277,4.6675,4.5277,4.6395,2859600
02/12/1997,4.6675,4.8352,4.6395,4.7234,2171200
02/13/1997,4.8631,4.8631,4.6954,4.7234,1607200
02/14/1997,4.8072,4.8631,4.6675,4.6954,2410400
02/18/1997,4.7793,4.8631,4.7234,4.7234,1843200
02/19/1997,4.7234,4.7513,4.6395,4.7234,2238800
02/20/1997,4.6395,4.6954,4.5836,4.6116,1568400
02/21/1997,4.6116,4.7234,4.5836,4.6954,1307200
02/24/1997,4.6954,4.6954,4.6116,4.6395,1454000
02/25/1997,4.6675,4.7234,4.4998,4.5557,1583600
02/26/1997,4.6116,4.6954,4.4718,4.5277,9968800
02/27/1997,4.5277,4.5836,4.4439,4.4998,1795200
02/28/1997,4.5557,4.5557,4.4439,4.5277,1148000
03/03/1997,4.4718,4.5557,4.4718,4.4998,1346000
03/04/1997,4.4998,4.6395,4.4998,4.6395,1754000
03/05/1997,4.6395,4.7513,4.6395,4.6675,1204800
03/06/1997,4.6675,4.8072,4.5836,4.7793,1808800
03/07/1997,4.7513,4.8072,4.6675,4.7234,1279600
03/10/1997,4.7793,4.8352,4.7234,4.8352,1359600
03/11/1997,4.8352,4.8352,4.6675,4.6954,806000
03/12/1997,4.6675,4.6675,4.5557,4.6116,626000
03/13/1997,4.6116,4.7234,4.6116,4.6675,932400
03/14/1997,4.6954,4.7234,4.6675,4.6954,630400
03/17/1997,4.6675,4.7234,4.6675,4.6675,695200
03/18/1997,4.6954,4.7513,4.6395,4.6954,1374400
03/19/1997,4.6954,4.7513,4.6954,4.7234,869200
03/20/1997,4.7234,4.7513,4.6954,4.7513,834400
03/21/1997,4.7793,4.7793,4.6954,4.7234,673600
03/24/1997,4.7234,4.7513,4.6954,4.6954,510800
03/25/1997,4.7234,4.7234,4.6395,4.6395,868400
03/26/1997,4.6675,4.7234,4.6675,4.7234,832400
03/27/1997,4.7513,4.7793,4.6675,4.6675,817600
03/31/1997,4.6675,4.7513,4.6395,4.6395,550400
04/01/1997,4.6395,4.8072,4.6395,4.6954,1957600
04/02/1997,4.6954,4.6954,4.388,4.388,1869600
04/03/1997,4.4159,4.4718,4.36,4.388,1580400
04/04/1997,4.388,4.388,4.2762,4.3041,1441200
04/07/1997,4.3321,4.3321,4.1644,4.1644,760800
04/08/1997,4.1644,4.1644,4.0247,4.1085,2062400
04/09/1997,4.2203,4.2762,4.1644,4.2203,1728800
04/10/1997,4.1923,4.1923,4.0247,4.0526,1031200
04/11/1997,4.0593,4.0873,3.9193,3.9193,1359200
04/14/1997,3.9753,4.1153,3.9753,4.0593,875200
04/15/1997,4.0593,4.1153,4.0313,4.0873,1592400
04/16/1997,4.0873,4.2273,4.0873,4.1713,1586400
04/17/1997,4.1993,4.2273,4.1433,4.1433,1415600
04/18/1997,4.0873,4.1153,4.0313,4.1153,1388000
04/21/1997,4.1713,4.2273,4.1433,4.1713,1125600
04/22/1997,4.1993,4.2833,4.1153,4.2833,909600
04/23/1997,4.2833,4.2833,4.1433,4.2273,882800
04/24/1997,4.2553,4.2833,4.1713,4.1993,1203200
04/25/1997,4.2553,4.2553,4.1433,4.1433,542400
04/28/1997,4.1713,4.1713,4.0033,4.0313,908400
04/29/1997,4.0593,4.2833,4.0593,4.2553,782000
04/30/1997,4.2553,4.2553,4.1433,4.1713,415200
05/01/1997,4.1993,4.2273,4.1713,4.1993,746800
05/02/1997,4.2273,4.3113,4.1713,4.3113,1359600
05/05/1997,4.3673,4.3953,4.2553,4.3953,2642800
05/06/1997,4.3673,4.3953,4.3393,4.3393,1274800
05/07/1997,4.3673,4.5352,4.3673,4.5072,2136800
05/08/1997,4.5352,4.7312,4.5352,4.6472,1599200
05/09/1997,4.7032,4.7872,4.6192,4.6192,1685600
05/12/1997,4.7032,4.8712,4.6752,4.8432,1002800
05/13/1997,4.8152,4.8712,4.6752,4.6752,537200
05/14/1997,4.6752,4.7592,4.6472,4.7032,814000
05/15/1997,4.7032,4.7312,4.6472,4.6472,700000
05/16/1997,4.6192,4.6752,4.6192,4.6192,333200
05/19/1997,4.6192,4.6752,4.5912,4.6472,552400
05/20/1997,4.6472,4.6752,4.5352,4.6472,1147600
05/21/1997,4.6192,4.6472,4.5632,4.6472,718000
05/22/1997,4.7032,4.8152,4.7032,4.7592,1252400
05/23/1997,4.7872,4.7872,4.7032,4.7312,392400
05/27/1997,4.7872,4.7872,4.5912,4.6192,668400
05/28/1997,4.7872,4.8432,4.7312,4.7872,1028800
05/29/1997,4.7872,4.8152,4.7032,4.7592,394000
05/30/1997,4.7312,4.7872,4.7032,4.7872,318400
06/02/1997,4.7872,4.7872,4.7032,4.7032,356400
06/03/1997,4.7032,4.7032,4.5912,4.6752,1106800
06/04/1997,4.6752,4.6752,4.6192,4.6192,550800
06/05/1997,4.6472,4.6752,4.6192,4.6472,218000
06/06/1997,4.6752,4.6752,4.5072,4.5632,1139600
06/09/1997,4.5072,4.5352,4.3673,4.3673,967600
06/10/1997,4.3953,4.3953,4.1153,4.2553,2467600
06/11/1997,4.2553,4.2553,4.1993,4.1993,1640800
06/12/1997,4.1993,4.3113,4.1993,4.2273,1046800
06/13/1997,4.2833,4.3393,4.2273,4.2553,1245200
06/16/1997,4.3113,4.3393,4.2273,4.2553,1196400
06/17/1997,4.2273,4.4793,4.2273,4.3673,1166000
06/18/1997,4.3393,4.4233,4.2273,4.2273,1546400
06/19/1997,4.2553,4.2833,4.2273,4.2273,813600
06/20/1997,4.2553,4.2553,4.1993,4.2273,802400
06/23/1997,4.2553,4.3113,4.1153,4.1153,1644800
06/24/1997,4.1433,4.1713,4.0313,4.0313,1611600
06/25/1997,4.0593,4.1433,4.0313,4.0313,1615600
06/26/1997,4.0033,4.1153,4.0033,4.0593,2868800
06/27/1997,4.0873,4.1433,4.0593,4.1153,886800
06/30/1997,4.1153,4.1153,3.9753,4.0593,2687200
07/01/1997,4.0593,4.1853,4.0313,4.1853,1615600
07/02/1997,4.1853,4.2413,4.1153,4.1573,3484000
07/03/1997,4.1153,4.1713,4.0173,4.0733,836800
07/07/1997,4.0873,4.0873,4.0173,4.0733,958400
07/08/1997,4.0313,4.0873,4.0033,4.0593,1516000
07/09/1997,4.0313,4.1293,4.0033,4.0313,1568800
07/10/1997,4.0313,4.0593,3.9613,4.0593,2599600
07/11/1997,4.038,4.1502,4.038,4.1081,2845200
07/14/1997,4.2483,4.4026,4.1642,4.1782,4716800
07/15/1997,4.2623,4.3184,4.2203,4.3184,5268800
07/16/1997,4.3184,4.3184,4.2483,4.2623,2330400
07/17/1997,4.3465,4.4727,4.3324,4.4586,2117200
07/18/1997,4.4446,4.4586,4.3885,4.4166,1487600
07/21/1997,4.3885,4.4026,4.3605,4.3745,668800
07/22/1997,4.3745,4.3885,4.3044,4.3465,3178400
07/23/1997,4.3324,4.3605,4.2483,4.2483,1210800
07/24/1997,4.2764,4.4306,4.2764,4.3605,1387200
07/25/1997,4.3465,4.5428,4.3184,4.4586,1565200
07/28/1997,4.4306,4.5428,4.4306,4.4446,1104400
07/29/1997,4.4727,4.4867,4.3745,4.4166,731600
07/30/1997,4.4306,4.5568,4.4026,4.5428,1110800
07/31/1997,4.5287,4.6269,4.5147,4.5708,1353600
08/01/1997,4.5988,4.6129,4.4867,4.5708,1047600
08/04/1997,4.5708,4.683,4.5287,4.6689,1268800
08/05/1997,4.697,5.1457,4.697,5.1036,3988400
08/06/1997,5.1176,5.2158,5.0475,5.1877,3118800
08/07/1997,5.2158,5.4401,5.2158,5.384,4546800
08/08/1997,5.3279,5.3279,5.1457,5.1597,2805200
08/11/1997,5.1597,5.2718,5.0335,5.1316,2554000
08/12/1997,5.1597,5.1597,4.9634,4.9634,1123600
08/13/1997,5.0335,5.0475,4.8092,4.9494,2248800
08/14/1997,5.1737,5.1737,5.0756,5.1036,1758000
08/15/1997,5.1176,5.2017,5.0054,5.0054,1025600
08/18/1997,5.0054,5.0195,4.9494,4.9914,1256400
08/19/1997,5.0054,5.0896,4.9774,5.0756,1192400
08/20/1997,5.1316,5.1737,5.0896,5.1597,1377600
08/21/1997,5.1036,5.1457,5.0475,5.0475,732800
08/22/1997,4.9914,5.0896,4.9213,5.0756,842400
08/25/1997,5.1036,5.1457,5.0475,5.1036,851600
08/26/1997,5.0756,5.1597,5.0475,5.1457,648800
08/27/1997,5.1597,5.2017,5.0756,5.1597,629200
08/28/1997,5.1597,5.2158,5.0054,5.2158,1627200
08/29/1997,5.2578,5.4121,5.2578,5.4121,1526800
09/02/1997,5.384,5.4401,5.3139,5.4401,2116000
09/03/1997,5.4401,5.6083,5.398,5.5663,1538800
09/04/1997,5.5803,5.6224,5.4401,5.4962,2052400
09/05/1997,5.4681,5.4962,5.3279,5.398,1785600
09/08/1997,5.356,5.4121,5.2438,5.2999,1554000
09/09/1997,5.2298,5.3419,5.2158,5.3419,704400
09/10/1997,5.3279,5.4401,5.2999,5.37,787200
09/11/1997,5.3279,5.3279,5.0756,5.1597,1441200
09/12/1997,5.1176,5.2718,5.0896,5.2158,1030800
09/15/1997,5.2158,5.2158,5.1457,5.1877,1168400
09/16/1997,5.2298,5.2859,5.1597,5.2298,1175200
09/17/1997,5.2438,5.2438,5.1036,5.1316,736400
09/18/1997,5.1316,5.1597,5.0335,5.1597,1006800
09/19/1997,5.1597,5.1597,4.9914,5.0615,1227600
09/22/1997,5.0615,5.1176,5.0475,5.1176,881600
09/23/1997,5.0756,5.1036,4.9914,5.1036,1400800
09/24/1997,5.0475,5.2859,4.9914,5.2158,1210800
09/25/1997,5.1457,5.2017,5.0896,5.1597,1124800
09/26/1997,5.1036,5.2298,5.0475,5.1737,3287200
09/29/1997,5.1176,5.1457,5.0475,5.1036,830400
09/30/1997,5.0475,5.1036,4.9914,4.9914,1301200
10/01/1997,5.0475,5.0615,4.9353,4.9914,2548000
10/02/1997,4.9774,5.0475,4.9353,5.0054,1958000
10/03/1997,4.9914,5.0896,4.9494,5.0756,1053200
10/06/1997,5.0475,5.2158,5.0475,5.1877,1430800
10/07/1997,5.1597,5.356,5.1316,5.1737,3018800
10/08/1997,5.2017,5.2438,5.0756,5.1316,809200
10/09/1997,5.0756,5.1176,5.0615,5.0756,948800
10/10/1997,5.0823,5.1946,5.0402,5.0542,2402800
10/13/1997,5.1104,5.1525,4.984,5.0261,979200
10/14/1997,5.0823,5.1385,4.97,4.97,2642800
10/15/1997,4.9559,4.9981,4.9419,4.9419,1076000
10/16/1997,4.9981,5.0402,4.9279,4.9279,1611600
10/17/1997,4.9138,4.9279,4.8155,4.8577,890400
10/20/1997,4.8296,5.0683,4.8015,5.0402,2530400
10/21/1997,5.0121,5.0823,4.9559,5.0823,1436400
10/22/1997,5.0823,5.1385,5.0402,5.1385,1407200
10/23/1997,5.0402,5.0542,4.97,4.9981,817200
10/24/1997,5.0261,5.1665,5.0121,5.1385,1408000
10/27/1997,5.0963,5.0963,4.7594,4.7594,1316800
10/28/1997,4.4926,4.7734,4.4926,4.6471,3302000
10/29/1997,4.6611,4.8577,4.6611,4.7453,1778800
10/30/1997,4.4365,4.8155,4.4365,4.5909,2910400
10/31/1997,4.6471,4.7734,4.6471,4.7313,1048400
11/03/1997,4.7453,4.8296,4.7453,4.7875,1388800
11/04/1997,4.7734,4.7734,4.7173,4.7453,1326400
11/05/1997,4.7453,4.7453,4.6892,4.7453,1605200
11/06/1997,4.7173,4.7734,4.605,4.6611,1626400
11/07/1997,4.5628,4.6471,4.5348,4.5628,596800
11/10/1997,4.7173,4.7453,4.6611,4.6751,972400
11/11/1997,4.6751,4.6751,4.4926,4.5348,1226400
11/12/1997,4.5207,4.605,4.4505,4.4505,2159600
11/13/1997,4.4646,4.4926,4.3663,4.3663,2653200
11/14/1997,4.3663,4.4365,4.282,4.4084,2408800
11/17/1997,4.4365,4.5207,4.3803,4.5207,2226000
11/18/1997,4.5207,4.5207,4.3663,4.3944,1280000
11/19/1997,4.3944,4.4224,4.2399,4.3803,1766000
11/20/1997,4.3803,4.5488,4.3663,4.5067,2373200
11/21/1997,4.5067,4.5488,4.4926,4.4926,1438000
11/24/1997,4.4646,4.5067,4.4505,4.4505,2336400
11/25/1997,4.4926,4.4926,4.2961,4.2961,3047200
11/26/1997,4.282,4.2961,4.2399,4.2399,1718000
11/28/1997,4.254,4.3803,4.254,4.282,1211200
12/01/1997,4.3382,4.3944,4.1557,4.1838,2172400
12/02/1997,4.268,4.2961,4.2259,4.254,2712800
12/03/1997,4.254,4.3101,4.1697,4.1697,2877600
12/04/1997,4.1978,4.2961,4.1557,4.268,4263200
12/05/1997,4.268,4.3522,4.2399,4.3101,5501600
12/08/1997,4.3101,4.3522,4.2961,4.3382,1040000
12/09/1997,4.3242,4.3663,4.282,4.282,2011200
12/10/1997,4.254,4.3382,4.254,4.2961,2288400
12/11/1997,4.282,4.3242,4.2399,4.2399,2378800
12/12/1997,4.268,4.282,4.2399,4.268,1108000
12/15/1997,4.2961,4.3522,4.254,4.282,2812800
12/16/1997,4.282,4.3803,4.282,4.3382,1244000
12/17/1997,4.3382,4.4224,4.3382,4.4224,2318400
12/18/1997,4.4505,4.5207,4.3382,4.3382,2424000
12/19/1997,4.3242,4.4084,4.268,4.3663,1393200
12/22/1997,4.4084,4.5348,4.3944,4.5207,2550800
12/23/1997,4.5207,4.5348,4.4786,4.5067,1340000
12/24/1997,4.4926,4.5769,4.4926,4.5769,476400
12/26/1997,4.5488,4.5769,4.4049,4.5488,466400
12/29/1997,4.605,4.6471,4.5769,4.5909,1210800
12/30/1997,4.5769,4.605,4.5488,4.5769,1064400
12/31/1997,4.605,4.8296,4.5909,4.7594,982800
01/02/1998,4.7242,4.7663,4.6261,4.6401,1302747
01/05/1998,4.6402,4.6542,4.4855,4.4855,861852
01/06/1998,4.3803,4.4926,4.3242,4.4084,4368040
01/07/1998,4.3945,4.5064,4.3945,4.4644,1866283
01/08/1998,4.4435,4.5278,4.4153,4.4856,960055
01/09/1998,4.4998,4.4998,4.2748,4.2748,1514275
01/12/1998,4.2399,4.4084,4.1697,4.3382,941539
01/13/1998,4.3309,4.4856,4.3309,4.4434,2238398
01/14/1998,4.4574,4.4574,4.359,4.4574,697383
01/15/1998,4.4856,4.5417,4.4576,4.5136,426702
01/16/1998,4.4295,4.6258,4.4295,4.5697,1048685
01/20/1998,4.5981,4.7387,4.584,4.6824,3818972
01/21/1998,4.6824,4.7808,4.6824,4.7808,2285519
01/22/1998,4.6543,4.6684,4.5559,4.5699,1723244
01/23/1998,4.5699,4.584,4.4856,4.4856,985410
01/26/1998,4.4434,4.5277,4.4293,4.4715,956070
01/27/1998,4.4433,4.542,4.4292,4.5138,595949
01/28/1998,4.5207,4.5771,4.4503,4.5066,479299
01/29/1998,4.5348,4.6752,4.5348,4.5629,2046887
01/30/1998,4.5558,4.5558,4.4577,4.5137,1359878
02/02/1998,4.5135,4.5135,4.3172,4.3733,3411935
02/03/1998,4.359,4.4715,4.359,4.4153,1937929
02/04/1998,4.4153,4.584,4.4153,4.5559,2495309
02/05/1998,4.6121,4.6402,4.584,4.6121,2526868
02/06/1998,4.6543,4.7246,4.5137,4.7246,4768388
02/09/1998,4.7176,4.7176,4.6193,4.6895,2390872
02/10/1998,4.6684,4.6824,4.584,4.6824,1122756
02/11/1998,4.7177,4.7177,4.6191,4.6191,652847
02/12/1998,4.6543,4.6543,4.5559,4.6262,840507
02/13/1998,4.6191,4.6755,4.5628,4.6191,1232893
02/17/1998,4.6612,4.6612,4.4927,4.4927,1577209
02/18/1998,4.5066,4.6474,4.4784,4.577,1874147
02/19/1998,4.5981,4.6121,4.4996,4.5278,2098828
02/20/1998,4.5488,4.6193,4.5348,4.5488,1593671
02/23/1998,4.5277,4.5418,4.4153,4.4856,2066385
02/24/1998,4.5066,4.5911,4.4785,4.5489,1460087
02/25/1998,4.5911,4.6051,4.5066,4.5488,647953
02/26/1998,4.6121,4.8371,4.584,4.7668,2145060
02/27/1998,4.7246,4.8371,4.6824,4.809,1285424
03/02/1998,4.8371,4.9355,4.809,4.9215,1531231
03/03/1998,4.9145,5.0128,4.8583,4.9847,851052
03/04/1998,4.9988,5.0128,4.9286,4.9566,1171969
03/05/1998,4.9144,4.9285,4.8161,4.9144,797644
03/06/1998,4.8503,4.9059,4.7253,4.7809,1580732
03/09/1998,4.8302,4.8302,4.6471,4.6612,1093136
03/10/1998,4.6612,4.8021,4.6612,4.788,1350993
03/11/1998,4.7597,4.9146,4.7315,4.8723,1202786
03/12/1998,4.8793,4.9636,4.8652,4.9636,2184610
03/13/1998,4.9847,5.0692,4.9847,5.027,1836243
03/16/1998,4.9705,4.9846,4.7599,4.788,859082
03/17/1998,4.7246,4.7527,4.6684,4.7387,1232984
03/18/1998,4.6471,4.9428,4.6471,4.8865,1088704
03/19/1998,4.8652,4.9636,4.7949,4.9636,1295210
03/20/1998,4.9074,5.0621,4.9074,5.0199,1344545
03/23/1998,5.3996,5.4277,5.2308,5.3433,3860312
03/24/1998,5.3152,5.3152,5.1324,5.1464,1137855
03/25/1998,5.1464,5.2308,5.1183,5.1746,943621
03/26/1998,5.2238,5.2238,5.0971,5.1675,549971
03/27/1998,5.1746,5.1746,5.0621,5.1183,1035183
03/30/1998,5.1535,5.1816,5.0831,5.1394,911719
03/31/1998,5.2098,5.2098,5.0549,5.1534,2085345
04/01/1998,5.1252,5.3224,5.1252,5.2942,2342370
04/02/1998,5.2308,5.3152,5.1886,5.2589,2528643
04/03/1998,5.1957,5.2659,5.1395,5.2659,772207
04/06/1998,5.294,5.3221,5.1676,5.1957,1030797
04/07/1998,5.2026,5.3013,5.1885,5.2731,1375083
04/08/1998,5.2589,5.3152,5.1746,5.1886,963628
04/09/1998,5.1539,5.406,5.1539,5.378,7794411
04/13/1998,5.519,5.519,5.2233,5.2233,4444990
04/14/1998,5.2867,5.3149,5.188,5.2585,2023792
04/15/1998,5.2795,5.4207,5.2654,5.3642,1855987
04/16/1998,5.2726,5.2866,5.1882,5.2023,763699
04/17/1998,5.2515,5.3078,5.2093,5.2937,3439950
04/20/1998,5.2937,5.2937,5.1952,5.2937,2789606
04/21/1998,5.2937,5.35,5.2656,5.2937,1294031
04/22/1998,5.2937,5.2937,5.2093,5.2093,1534200
04/23/1998,5.2728,5.2728,4.9626,5.0613,1958573
04/24/1998,5.0685,5.1248,5.0403,5.0685,1163518
04/27/1998,5.0544,5.0544,4.9418,5.0544,1981667
04/28/1998,5.0966,5.1672,5.0542,5.1248,1116930
04/29/1998,5.1811,5.3356,5.153,5.1952,2218954
04/30/1998,5.2304,5.2867,5.1458,5.2586,1640751
05/01/1998,5.2374,5.2656,5.1248,5.2374,1437418
05/04/1998,5.2233,5.2655,5.1812,5.2233,883557
05/05/1998,5.1952,5.2092,5.0828,5.1952,1149747
05/06/1998,5.167,5.2515,5.0121,5.0262,1458735
05/07/1998,4.9911,5.1035,4.9489,5.0192,2104484
05/08/1998,5.0474,5.0895,5.0192,5.0755,989543
05/11/1998,5.1107,5.1107,5.0121,5.0262,833239
05/12/1998,5.0403,5.0403,4.8714,4.9558,772426
05/13/1998,5.005,5.0191,4.8223,4.8926,2074295
05/14/1998,4.8714,4.8714,4.6461,4.7024,8038969
05/15/1998,4.7587,4.8291,4.7165,4.7306,4421015
05/18/1998,4.7376,4.794,4.7235,4.7517,1791673
05/19/1998,4.794,4.8081,4.653,4.6812,851948
05/20/1998,4.6813,4.78,3.1584,4.7236,892284
05/21/1998,4.7377,4.7659,4.6531,4.6531,1661327
05/22/1998,4.7024,4.7165,4.6602,4.6602,468784
05/26/1998,4.7165,4.7306,4.5053,4.5053,895390
05/27/1998,4.5123,4.5826,4.3858,4.442,2938927
05/28/1998,4.4278,4.5124,4.4137,4.4983,924557
05/29/1998,4.5687,4.5969,4.5123,4.5687,1778261
06/01/1998,4.5477,4.5477,4.4347,4.4488,588575
06/02/1998,4.5053,4.5477,4.4065,4.4771,1139520
06/03/1998,4.4983,4.5124,4.4278,4.4701,802229
06/04/1998,4.5053,4.5616,4.4631,4.4771,1402793
06/05/1998,4.5053,4.5335,4.4208,4.4771,1159972
06/08/1998,4.4771,4.4771,4.3364,4.3786,1153758
06/09/1998,4.3786,4.3786,4.28,4.3082,2659101
06/10/1998,4.2729,4.3151,4.1886,4.2027,1305525
06/11/1998,4.2237,4.2941,4.1533,4.1533,2787832
06/12/1998,4.1533,4.3504,4.1392,4.28,2784281
06/15/1998,4.1954,4.2375,4.1113,4.1253,939392
06/16/1998,4.1957,4.2099,4.0968,4.0968,2831884
06/17/1998,4.1463,4.2869,4.1323,4.2166,1646608
06/18/1998,4.266,4.266,4.0829,4.1533,1311353
06/19/1998,4.1114,4.1392,4.0696,4.1392,600930
06/22/1998,4.1674,4.3504,4.1252,4.3364,2268881
06/23/1998,4.3504,4.5757,4.3364,4.4912,3324980
06/24/1998,4.5194,4.5898,4.4771,4.5475,2633344
06/25/1998,4.5405,4.5687,4.4841,4.5687,2070784
06/26/1998,4.6109,4.6532,4.5404,4.5545,843917
06/29/1998,4.5687,4.5687,4.47,4.4982,1065522
06/30/1998,4.5053,4.5757,4.4771,4.5616,1715763
07/01/1998,4.6179,4.6602,4.5053,4.5335,860766
07/02/1998,4.5264,4.5827,4.4983,4.5546,688702
07/06/1998,4.5405,4.5405,4.4702,4.4983,818089
07/07/1998,4.4912,4.4912,4.3927,4.3927,650345
07/08/1998,4.4067,4.4771,4.3927,4.449,329841
07/09/1998,4.4419,4.4841,4.3716,4.3857,657166
07/10/1998,4.4067,4.4067,4.2378,4.2519,1020583
07/13/1998,4.2304,4.2869,4.0471,4.0471,1268472
07/14/1998,4.089,4.2172,4.0747,4.1317,4256062
07/15/1998,4.1176,4.1176,4.0189,4.0471,2184598
07/16/1998,4.033,4.0612,4.0048,4.0471,4601462
07/17/1998,4.0471,4.0612,4.033,4.0471,1263147
07/20/1998,4.0543,4.0684,3.8989,3.9413,3842976
07/21/1998,3.9697,3.9838,3.8425,3.8425,1242739
07/22/1998,3.8427,3.8568,3.7155,3.8003,6890798
07/23/1998,3.7862,3.8427,3.7721,3.8004,4086826
07/24/1998,3.8285,3.8285,3.7159,3.744,1908029
07/27/1998,3.6875,3.744,3.6169,3.7017,1895999
07/28/1998,3.6945,3.7085,3.6102,3.6383,2975187
07/29/1998,3.617,3.73,3.617,3.6311,3776377
07/30/1998,3.603,3.7578,3.603,3.6593,2380256
07/31/1998,3.6664,3.6664,3.5677,3.5818,2542280
08/03/1998,3.6453,3.7159,3.5888,3.6029,1545143
08/04/1998,3.6029,3.6451,3.4058,3.5325,2436279
08/05/1998,3.5183,3.6309,3.4338,3.4761,1321215
08/06/1998,3.469,3.4831,3.3844,3.469,1154568
08/07/1998,3.5112,3.582,3.4263,3.5254,2317991
08/10/1998,3.5113,3.5113,3.3844,3.3844,1320332
08/11/1998,3.2715,3.328,3.1587,3.3138,2781610
08/12/1998,3.2926,3.3915,3.2926,3.3774,1118530
08/13/1998,3.3844,3.4126,3.2997,3.2997,1704600
08/14/1998,3.2997,3.3844,3.2997,3.3844,1275568
08/17/1998,3.3844,3.3844,3.3279,3.3279,1446650
08/18/1998,3.2928,3.4335,3.2928,3.4195,1138339
08/19/1998,3.4197,3.5605,3.4057,3.5323,1666750
08/20/1998,3.5677,3.5818,3.5113,3.5818,1277787
08/21/1998,3.6241,3.6382,3.4831,3.5395,1259166
08/24/1998,3.5466,3.5608,3.4477,3.4477,981072
08/25/1998,3.4972,3.4972,3.2715,3.3844,2932308
08/26/1998,3.2995,3.3275,3.1877,3.2715,2745689
08/27/1998,3.2997,3.2997,3.0459,3.1728,2257735
08/28/1998,3.1516,3.1938,3.0109,3.039,1944362
08/31/1998,3.0318,3.0741,2.9049,2.9331,1513574
09/01/1998,2.9331,3.0741,2.6511,3.0459,2212518
09/02/1998,3.0741,3.1446,2.9895,2.9895,2350361
09/03/1998,2.9613,3.0177,2.8626,2.9895,2556902
09/04/1998,3.0108,3.1937,2.9827,3.1656,2915453
09/08/1998,3.2222,3.2788,3.1657,3.194,1548708
09/09/1998,3.2081,3.2505,3.1798,3.2222,1211734
09/10/1998,3.1869,3.2856,3.1305,3.2433,3597133
09/11/1998,3.2715,3.5395,3.2715,3.469,2824160
09/14/1998,3.6382,3.6382,3.5113,3.5395,1713024
09/15/1998,3.4969,3.7093,3.4969,3.6385,2629346
09/16/1998,3.6241,3.7792,3.61,3.7228,2711590
09/17/1998,3.6594,3.7157,3.6312,3.7157,871689
09/18/1998,3.7016,3.7299,3.6451,3.7158,1460710
09/21/1998,3.7298,3.7722,3.6733,3.7722,1069679
09/22/1998,3.7863,3.857,3.7016,3.7016,2915734
09/23/1998,3.8046,4.2463,3.8046,4.0753,4362032
09/24/1998,4.0329,4.061,3.9064,3.9626,1542949
09/25/1998,4.0117,4.2377,3.9834,4.2236,2774199
09/28/1998,4.2233,4.2233,4.0402,4.0543,2227412
09/29/1998,4.0612,4.0612,4.0189,4.0471,993242
09/30/1998,4.0543,4.0543,3.8141,3.9413,1010952
10/01/1998,3.9412,3.9412,3.6878,3.7441,1443527
10/02/1998,3.6733,3.857,3.6733,3.7864,1083832
10/05/1998,3.8287,3.8428,3.7015,3.7156,1869091
10/06/1998,3.7157,3.772,3.6594,3.7157,1051078
10/07/1998,3.6875,3.7156,3.589,3.6312,962741
10/08/1998,3.61,3.6805,3.4267,3.4972,2708485
10/09/1998,3.5606,3.5889,3.3769,3.5889,1795457
10/12/1998,3.6664,3.6664,3.5677,3.5677,2280341
10/13/1998,3.5248,3.7089,3.5107,3.7089,1707336
10/14/1998,3.7299,3.8994,3.6875,3.8288,5452710
10/15/1998,3.8642,3.8925,3.7651,3.7651,1916801
10/16/1998,3.7722,3.8573,3.7438,3.8006,1427057
10/19/1998,3.8216,3.8216,3.5678,3.7088,1123071
10/20/1998,3.7581,3.8146,3.7157,3.7299,3151487
10/21/1998,3.7157,3.8994,3.7016,3.8005,3329766
10/22/1998,3.8216,3.9631,3.7933,3.9348,2354449
10/23/1998,3.963,3.9913,3.8781,3.9347,1848478
10/26/1998,3.9842,4.0407,3.9277,3.9559,1957519
10/27/1998,3.9843,4.0977,3.9134,3.9276,1703692
10/28/1998,3.9559,3.9559,3.8146,3.8853,877223
10/29/1998,3.8853,4.0266,3.8429,3.8712,1278454
10/30/1998,3.8358,3.8358,3.723,3.7794,752102
11/02/1998,3.7509,4.034,3.7226,3.9349,1434200
11/03/1998,3.97,3.97,3.8005,3.9418,1574865
11/04/1998,3.9418,3.9842,3.8712,3.9418,1013916
11/05/1998,3.9418,4.0266,3.9277,3.9842,1913261
11/06/1998,4.0124,4.1255,4.0124,4.0972,2529505
11/09/1998,4.1255,4.182,4.0689,4.0831,2077841
11/10/1998,3.9842,4.0689,3.8711,3.9277,1241311
11/11/1998,3.9418,3.9559,3.8994,3.8994,794939
11/12/1998,3.8925,4.0617,3.8925,4.0335,1218253
11/13/1998,4.0978,4.1264,4.0264,4.0407,1393302
11/16/1998,4.0619,4.0619,3.8496,4.0053,1306693
11/17/1998,4.0124,4.0124,3.8994,3.9277,989153
11/18/1998,3.9277,3.9559,3.8853,3.9277,889179
11/19/1998,3.9277,3.9418,3.8146,3.8146,754246
11/20/1998,3.8006,3.885,3.7583,3.8287,1946547
11/23/1998,3.8501,3.8642,3.7085,3.7368,2066029
11/24/1998,3.7016,3.744,3.6168,3.6734,3048859
11/25/1998,3.7156,3.786,3.6453,3.6593,1528478
11/27/1998,3.6521,3.7371,3.6521,3.6804,245939
11/30/1998,3.7016,3.7016,3.3484,3.3908,2428654
12/01/1998,3.4064,3.4064,3.1926,3.2354,3257277
12/02/1998,3.1718,3.2,3.0308,3.1859,3341157
12/03/1998,3.1365,3.1647,2.9387,3.0517,2675940
12/04/1998,3.0586,3.2285,3.0445,3.2002,2001209
12/07/1998,3.2071,3.3767,3.2071,3.3343,3867670
12/08/1998,3.3201,3.419,3.1789,3.1789,2489261
12/09/1998,3.1789,3.2778,3.1365,3.2212,2541900
12/10/1998,3.193,3.2636,3.1506,3.1647,3183325
12/11/1998,3.1149,3.2423,3.0583,3.0866,2131210
12/14/1998,3.0866,3.0866,2.8742,2.9167,3724318
12/15/1998,3.1573,3.5408,3.0245,3.5113,11013475
12/16/1998,3.7379,3.752,3.5255,3.7379,14441278
12/17/1998,3.6116,3.7796,3.5836,3.7096,4458111
12/18/1998,3.7026,3.9287,3.7026,3.8156,4063047
12/21/1998,3.745,3.745,3.6882,3.7308,3100008
12/22/1998,3.7096,3.7662,3.6954,3.752,3881465
12/23/1998,3.7308,3.7591,3.7026,3.7591,4263416
12/24/1998,3.7592,3.8581,3.745,3.8298,669576
12/28/1998,3.7945,3.8511,3.752,3.7945,2764657
12/29/1998,3.7945,3.9503,3.7804,3.8795,2876334
12/30/1998,3.8866,3.9149,3.844,3.8724,2738463
12/31/1998,3.8653,3.9927,3.8087,3.9078,2281733
01/04/1999,3.8653,3.9927,3.8087,3.9644,1940066
01/05/1999,3.9715,4.0282,3.9431,3.9573,1091902
01/06/1999,3.9503,4.0494,3.9078,4.0352,1496434
01/07/1999,3.9786,3.9927,3.7379,3.8795,2920034
01/08/1999,3.8657,4.1338,3.8516,4.0914,3509881
01/11/1999,4.1626,4.1768,3.8228,3.9078,3308925
01/12/1999,3.8936,4.1202,3.8653,3.9219,3753891
01/13/1999,3.8011,3.9146,3.7585,3.872,2731670
01/14/1999,3.8649,3.9499,3.8224,3.8508,791111
01/15/1999,3.8153,3.9001,3.7588,3.8294,918208
01/19/1999,3.9145,4.071,3.9002,3.9714,1796262
01/20/1999,4.0209,4.1342,3.9643,3.9784,1673506
01/21/1999,3.9997,4.0848,3.9855,4.0138,1694347
01/22/1999,3.9641,4.0778,3.9499,4.0778,2458526
01/25/1999,4.0991,4.1134,3.9853,3.9995,1214159
01/26/1999,3.9997,3.9997,3.9004,3.9146,3872102
01/27/1999,3.9571,3.9713,3.7727,3.8011,3071855
01/28/1999,3.8011,3.8436,3.7302,3.8011,3603740
01/29/1999,3.7335,3.9424,3.6917,3.9146,3075011
02/01/1999,3.8862,3.8862,3.7869,3.8011,4399141
02/02/1999,3.743,3.7712,3.5742,3.5742,3249915
02/03/1999,3.6309,3.7727,3.6025,3.7302,4374450
02/04/1999,3.7373,3.8367,3.6946,3.7373,4041116
02/05/1999,3.7514,3.8651,3.7514,3.8366,1634441
02/08/1999,3.8437,3.9285,3.8437,3.872,1062360
02/09/1999,3.8649,3.8791,3.7092,3.8791,780949
02/10/1999,3.8507,3.8648,3.7516,3.7941,621587
02/11/1999,3.794,3.9072,3.7232,3.7798,3567216
02/12/1999,3.7372,3.8793,3.7372,3.8508,1723293
02/16/1999,3.8083,3.8509,3.6377,3.7372,1464647
02/17/1999,3.6876,3.7586,3.6309,3.7302,1246194
02/18/1999,3.7302,3.7444,3.6451,3.7018,875601
02/19/1999,3.7444,3.7585,3.6876,3.716,2707875
02/22/1999,3.7515,3.8652,3.6804,3.7231,857226
02/23/1999,3.7302,3.7302,3.6735,3.6876,1398662
02/24/1999,3.6876,3.7727,3.6876,3.7018,1314502
02/25/1999,3.7444,3.8295,3.716,3.7869,1805839
02/26/1999,3.8011,3.8011,3.7018,3.7444,1308779
03/01/1999,3.8011,3.8011,3.6309,3.6309,3122534
03/02/1999,3.6664,3.7938,3.6522,3.6805,1787253
03/03/1999,3.709,3.709,3.6095,3.6237,3228645
03/04/1999,3.6309,3.7585,3.5883,3.7585,2771331
03/05/1999,3.7727,3.8011,3.7302,3.8011,765877
03/08/1999,3.8296,3.9285,3.7306,3.8861,1597529
03/09/1999,3.8651,3.8935,3.5667,3.6946,2536099
03/10/1999,3.7513,3.936,3.7087,3.936,6588050
03/11/1999,4.0848,4.1557,3.9287,3.9429,6044125
03/12/1999,3.9429,4.028,3.8862,3.9146,1164233
03/15/1999,3.9287,3.9287,3.8436,3.8862,1260743
03/16/1999,3.95,3.9785,3.9074,3.9358,934728
03/17/1999,3.9429,4.0848,3.9429,4.0706,1113122
03/18/1999,4.0848,4.0989,3.8862,3.9287,1517646
03/19/1999,3.95,4.0495,3.9216,3.9784,1616093
03/22/1999,3.9713,3.9855,3.8862,3.9146,868108
03/23/1999,3.8578,3.9146,3.8437,3.9004,929801
03/24/1999,3.9074,3.9499,3.78,3.8508,2058559
03/25/1999,3.8578,3.8578,3.6876,3.7444,4092884
03/26/1999,3.794,3.8931,3.6949,3.8223,5890697
03/29/1999,3.872,3.9571,3.872,3.9146,1953453
03/30/1999,3.8932,3.8932,3.7374,3.7658,3652349
03/31/1999,3.8011,3.8295,3.7585,3.7727,1284094
04/01/1999,3.7515,3.8223,3.7232,3.8081,1455573
04/05/1999,3.865,3.865,3.6518,3.8081,3483151
04/06/1999,3.7869,3.8578,3.7585,3.7727,2420998
04/07/1999,3.7444,3.7727,3.6451,3.716,1852549
04/08/1999,3.716,3.8011,3.6593,3.6876,1255890
04/09/1999,3.6309,3.7869,3.6309,3.716,1400430
04/12/1999,3.7433,3.9154,3.7289,3.8437,1808940
04/13/1999,3.8293,3.9569,3.8009,3.9569,3470834
04/14/1999,3.9002,3.9572,3.8575,3.8718,1583748
04/15/1999,3.8716,4.0994,3.8716,4.0424,2338164
04/16/1999,4.0498,4.3897,4.0498,4.3189,5978442
04/19/1999,4.2909,4.4472,4.2483,4.3193,2882552
04/20/1999,4.3263,4.3263,4.0993,4.1561,3739526
04/21/1999,4.1773,4.2625,4.1488,4.2625,1784603
04/22/1999,4.2625,4.3051,4.1631,4.2341,1020093
04/23/1999,4.2057,4.2199,4.1062,4.1204,1048236
04/26/1999,4.1274,4.1274,3.9572,3.9856,1152312
04/27/1999,3.9711,4.1988,3.9284,4.1846,1613296
04/28/1999,4.1985,4.3408,4.1985,4.3123,1609023
04/29/1999,4.2774,4.4181,4.2352,4.3478,3733887
04/30/1999,4.369,4.4541,4.3123,4.3265,1677808
05/03/1999,4.3407,4.3549,4.2837,4.3122,1508069
05/04/1999,4.405,4.4338,4.3762,4.3762,2098772
05/05/1999,4.3406,4.3406,4.2129,4.2839,672366
05/06/1999,4.2769,4.3197,4.1629,4.1629,722914
05/07/1999,4.092,4.3762,4.0494,4.2625,12867424
05/10/1999,4.2837,4.4261,4.241,4.3834,2174279
05/11/1999,4.3478,4.433,4.3336,4.4046,6451310
05/12/1999,4.3407,4.44,4.3265,4.4116,1621393
05/13/1999,4.4046,4.4614,4.3762,4.4472,2821408
05/14/1999,4.433,4.4898,4.3336,4.362,3166710
05/17/1999,4.3265,4.369,4.2414,4.3548,2919874
05/18/1999,4.362,4.362,4.2625,4.3051,734608
05/19/1999,4.3193,4.4614,4.3051,4.4046,2436509
05/20/1999,4.4046,4.4188,4.3193,4.3335,896046
05/21/1999,4.3335,4.433,4.3051,4.3904,1372872
05/24/1999,4.3904,4.4046,4.2625,4.2625,2558801
05/25/1999,4.2696,4.3123,4.1985,4.2412,967875
05/26/1999,4.2909,4.3194,4.2339,4.2909,454641
05/27/1999,4.298,4.3123,4.2696,4.2838,900703
05/28/1999,4.2838,4.3549,4.2553,4.3265,1108865
06/01/1999,4.3265,4.3265,4.1842,4.2696,1408800
06/02/1999,4.2907,4.4475,4.2765,4.419,1460896
06/03/1999,4.3642,4.5982,4.2953,4.433,3016252
06/04/1999,4.4898,4.6177,4.4614,4.5609,1449419
06/07/1999,4.5539,4.6674,4.5397,4.6674,1163524
06/08/1999,4.5751,4.774,4.5751,4.7598,2942378
06/09/1999,4.7598,4.7598,4.703,4.7314,1562024
06/10/1999,4.7243,4.7385,4.6958,4.7243,1340931
06/11/1999,4.6746,4.7882,4.6603,4.7598,1130060
06/14/1999,4.7527,4.7811,4.7243,4.7527,813240
06/15/1999,4.7456,4.8166,4.7456,4.7598,1844430
06/16/1999,4.781,4.781,4.5682,4.6959,1093426
06/17/1999,4.7316,4.8733,4.6608,4.8733,2240327
06/18/1999,4.8806,4.8948,4.781,4.8379,798964
06/21/1999,4.8735,4.8735,4.774,4.8024,1110267
06/22/1999,4.774,4.8451,4.7598,4.7882,1185923
06/23/1999,4.7314,4.8166,4.6603,4.7172,1047365
06/24/1999,4.7526,4.7526,4.5824,4.6533,538798
06/25/1999,4.6532,4.6532,4.6107,4.639,676696
06/28/1999,4.6319,4.6319,4.3193,4.5467,1472729
06/29/1999,4.5395,4.6107,4.5253,4.5822,2782745
06/30/1999,4.5822,4.7666,4.568,4.6106,2664962
07/01/1999,4.5467,4.6319,4.5467,4.6177,1060557
07/02/1999,4.6319,4.7598,4.6177,4.6888,704700
07/06/1999,4.6751,4.7324,4.5747,4.6177,1650464
07/07/1999,4.7456,4.7456,4.5467,4.6319,837102
07/08/1999,4.6959,4.7528,4.6105,4.639,801994
07/09/1999,4.6461,4.703,4.5325,4.5467,1289303
07/12/1999,4.6035,4.6319,4.4756,4.5041,1210123
07/13/1999,4.4682,4.5109,4.4255,4.4824,1019856
07/14/1999,4.5537,4.568,4.3967,4.4681,2287217
07/15/1999,4.4468,4.5324,4.4468,4.4611,1440964
07/16/1999,4.4682,4.5536,4.454,4.5109,832742
07/19/1999,4.5109,4.5251,4.4113,4.4967,606551
07/20/1999,4.6532,4.866,4.6248,4.6674,4893270
07/21/1999,4.6604,4.6604,4.4894,4.5464,1444985
07/22/1999,4.5607,4.6176,4.4897,4.6176,1305180
07/23/1999,4.6605,4.9162,4.6605,4.8736,1965348
07/26/1999,4.8382,4.8666,4.639,4.639,763353
07/27/1999,4.6604,4.7174,4.5321,4.5464,2286968
07/28/1999,4.5536,4.6532,4.5393,4.582,1439745
07/29/1999,4.5963,4.9378,4.5678,4.9093,3026191
07/30/1999,4.9097,5.0102,4.8379,4.8666,1674406
08/02/1999,4.8737,4.9022,4.7597,4.9022,908296
08/03/1999,4.945,5.002,4.7882,4.8025,812240
08/04/1999,4.8654,5.052,4.8511,5.0089,1187086
08/05/1999,5.0089,5.3789,5.0089,5.2508,6938294
08/06/1999,5.3078,5.692,5.2935,5.6777,11922059
08/09/1999,5.692,5.7347,5.5924,5.635,6052821
08/10/1999,5.6066,5.6066,5.0801,5.0943,12649844
08/11/1999,5.1228,5.4358,5.1228,5.2793,53795983
08/12/1999,5.4003,5.4145,5.3006,5.3433,12739253
08/13/1999,5.3931,5.3931,5.2793,5.3362,4273995
08/16/1999,5.322,5.3504,5.2651,5.2793,5163411
08/17/1999,5.4003,5.4003,5.2721,5.2863,3623539
08/18/1999,5.3291,5.3433,5.258,5.2722,2424210
08/19/1999,5.2652,5.4497,5.2652,5.393,4164312
08/20/1999,5.4501,5.4501,5.3647,5.3931,2548322
08/23/1999,5.4287,5.4287,5.3292,5.3861,3051295
08/24/1999,5.3718,5.4573,5.3575,5.3575,1440482
08/25/1999,5.3647,5.3931,5.3504,5.3647,3826000
08/26/1999,5.3504,5.3789,5.2793,5.2793,4860797
08/27/1999,5.3291,5.3291,5.258,5.2864,2505121
08/30/1999,5.2509,5.3219,5.2509,5.3219,1264818
08/31/1999,5.3007,5.4997,5.3007,5.4428,3134888
09/01/1999,5.4714,5.5141,5.4572,5.4714,2502909
09/02/1999,5.4216,5.4216,5.2793,5.322,2822398
09/03/1999,5.3576,5.3718,5.3006,5.3291,2084375
09/07/1999,5.3078,5.5639,5.3078,5.4501,2997639
09/08/1999,5.4074,5.692,5.3931,5.4643,4520839
09/09/1999,5.5851,5.7561,5.5709,5.7419,3937010
09/10/1999,5.799,5.799,5.5277,5.6134,2903303
09/13/1999,5.635,5.635,5.4927,5.5497,1813510
09/14/1999,5.5639,5.5781,5.3504,5.3647,2284790
09/15/1999,5.3503,5.3787,5.1942,5.2368,2947565
09/16/1999,5.2366,5.2935,5.2081,5.2935,1376497
09/17/1999,5.2295,5.3859,5.2153,5.3148,1663801
09/20/1999,5.3504,5.635,5.322,5.507,5570124
09/21/1999,5.4199,5.434,5.1799,5.2081,4105338
09/22/1999,5.2942,5.366,5.1651,5.2081,4808759
09/23/1999,5.2796,5.2939,5.0656,5.0656,1794949
09/24/1999,5.0874,5.0874,4.6314,4.7597,4459494
09/27/1999,4.9378,4.9662,4.8524,4.952,3323540
09/28/1999,5.0163,5.0306,4.5888,4.6316,4527787
09/29/1999,4.6816,4.8382,4.6816,4.7955,5923695
09/30/1999,4.8097,4.9805,4.8097,4.8382,2577754
10/01/1999,4.8097,4.9093,4.7955,4.8382,1599179
10/04/1999,4.7954,4.8953,4.7383,4.8525,1968459
10/05/1999,4.8674,4.8818,4.652,4.7813,3279506
10/06/1999,4.7742,4.7742,4.6887,4.7029,1794575
10/07/1999,4.7458,4.9021,4.6605,4.8879,1913420
10/08/1999,4.7741,4.8735,4.632,4.6604,3905244
10/11/1999,4.6674,4.8097,4.5963,4.7813,1398453
10/12/1999,4.8382,5.0232,4.8382,4.952,2390645
10/13/1999,4.8946,5.0085,4.7239,4.7808,2447541
10/14/1999,4.7808,4.8946,4.6527,4.8234,1618680
10/15/1999,4.8379,4.8379,4.4954,4.5525,3579759
10/18/1999,4.5456,4.6599,4.5313,4.5742,2326977
10/19/1999,4.6596,4.9589,4.6454,4.8164,2168483
10/20/1999,4.8734,5.0728,4.8734,5.0586,2995707
10/21/1999,5.0229,5.0656,4.7952,4.8806,977297
10/22/1999,4.8379,5.2363,4.8379,5.094,1861927
10/25/1999,5.1086,5.1086,4.7947,4.9088,885616
10/26/1999,4.9435,4.9576,4.774,4.8164,1879339
10/27/1999,4.8306,4.9446,4.7879,4.8164,1464951
10/28/1999,4.8236,4.9663,4.5667,4.6809,2236632
10/29/1999,4.7307,4.7882,4.5869,4.7451,1708646
11/01/1999,4.7309,4.8021,4.6881,4.7879,916693
11/02/1999,4.8509,4.8509,4.3311,4.3889,4004457
11/03/1999,4.3817,4.5387,4.3531,4.4816,6248454
11/04/1999,4.5032,4.5461,4.2602,4.303,1774990
11/05/1999,4.3246,4.3531,3.9548,4.1824,10629498
11/08/1999,4.1892,4.3179,4.1892,4.2607,3693310
11/09/1999,4.2891,4.4316,4.2606,4.4174,4442685
11/10/1999,4.4246,4.6095,4.3961,4.5099,2354697
11/11/1999,4.5242,4.5242,4.3534,4.4246,2015987
11/12/1999,4.3818,4.5668,4.3534,4.4814,2241387
11/15/1999,4.4744,4.6169,4.4744,4.5884,1239510
11/16/1999,4.5904,4.6193,4.4172,4.4316,1851383
11/17/1999,4.4744,4.9731,4.4601,4.7594,3386941
11/18/1999,4.6169,4.7024,4.4886,4.6454,2752273
11/19/1999,4.5385,4.5814,4.4386,4.4672,4996188
11/22/1999,4.4602,4.5603,4.3458,4.4173,2776660
11/23/1999,4.4174,4.4459,4.1894,4.3889,9584492
11/24/1999,4.4103,4.5384,4.4103,4.5099,6575595
11/26/1999,4.5029,4.5314,4.4886,4.5029,1079421
11/29/1999,4.4459,4.4601,4.2749,4.2749,4773833
11/30/1999,4.2677,4.3246,4.1397,4.225,3793738
12/01/1999,4.2749,4.3319,4.1751,4.2606,3265014
12/02/1999,4.2179,4.2179,4.0611,4.0754,3017196
12/03/1999,4.1324,4.1466,3.8759,3.9614,2175512
12/06/1999,3.8687,3.9398,3.7549,3.7691,2135174
12/07/1999,3.5411,3.6125,3.3127,3.4412,20922325
12/08/1999,3.4414,3.6405,3.2708,3.5694,10030781
12/09/1999,3.6621,3.7049,3.4199,3.6051,4625148
12/10/1999,3.6265,3.6265,3.4274,3.5696,4085805
12/13/1999,3.6123,3.8683,3.5839,3.655,5208141
12/14/1999,3.6978,3.7407,3.5979,3.6122,2957933
12/15/1999,3.6194,3.7761,3.6194,3.6764,6740113
12/16/1999,3.7119,3.8689,3.7119,3.8546,6811046
12/17/1999,3.9186,3.9186,3.8474,3.9186,4665487
12/20/1999,3.9115,3.9257,3.7835,3.8973,4331691
12/21/1999,3.9335,3.9623,3.8471,3.8759,2377079
12/22/1999,3.8545,3.8831,3.7689,3.826,2628982
12/23/1999,3.7761,3.9899,3.7619,3.8901,4639177
12/27/1999,3.8544,3.9113,3.6838,3.7691,2386520
12/28/1999,3.8759,3.9044,3.6621,3.8759,3850119
12/29/1999,3.94,4.0399,3.8829,3.94,1468884
12/30/1999,4.0254,4.0254,3.7551,3.8974,2066489
12/31/1999,3.8474,4.0041,3.7761,4.0041,1013634
01/03/2000,3.9186,3.9614,3.4199,3.5339,4323803
01/04/2000,3.4199,3.5624,3.3629,3.5339,5810691
01/05/2000,3.4769,3.5339,3.3914,3.4341,3944862
01/06/2000,3.441,3.7694,3.4124,3.7123,4327022
01/07/2000,3.7691,3.8262,3.6406,3.6692,3016679
01/10/2000,3.6616,3.7337,3.604,3.7049,2165153
01/11/2000,3.6479,3.7904,3.6479,3.7334,2962806
01/12/2000,3.7189,3.7758,3.6619,3.7473,2277888
01/13/2000,3.7688,3.8687,3.7545,3.8116,4701167
01/14/2000,3.8687,3.9115,3.7831,3.883,5480461
01/18/2000,3.9329,4.0897,3.8047,3.9044,4000506
01/19/2000,3.9401,4.0539,3.9116,3.9258,1826129
01/20/2000,3.9117,3.9261,3.6681,3.8114,4515851
01/21/2000,3.876,3.9618,3.6901,3.7044,8477448
01/24/2000,3.6474,3.6902,3.5192,3.6332,5766682
01/25/2000,3.5973,3.6681,3.5264,3.5689,5085641
01/26/2000,3.5832,3.7117,3.5832,3.6118,4569826
01/27/2000,3.626,3.6831,3.4833,3.5261,2847053
01/28/2000,3.5261,3.5832,3.469,3.4833,2515194
01/31/2000,3.5404,3.6403,3.4404,3.626,3329514
02/01/2000,3.5834,3.6829,3.5549,3.6687,3037163
02/02/2000,3.7046,3.8044,3.7046,3.7759,4497386
02/03/2000,3.7901,3.8329,3.6761,3.6904,3747759
02/04/2000,3.6689,3.7831,3.4833,3.5832,2833920
02/07/2000,3.6331,3.6758,3.5191,3.5619,3413328
02/08/2000,3.5832,3.626,3.4976,3.5404,2580425
