01/02/1987,3.9125,4.0135,3.899,4.0135,824000
01/05/1987,4.0202,4.0673,4.0202,4.0606,1616800
01/06/1987,4.0741,4.1481,4.0471,4.0606,2948800
01/07/1987,4.0269,4.1212,4.0269,4.1212,1420000
01/08/1987,4.1481,4.2155,4.1212,4.202,1454400
01/09/1987,4.2155,4.2761,4.1885,4.2289,910400
01/12/1987,4.2155,4.3906,4.202,4.3771,1405600
01/13/1987,4.3771,4.3771,4.3165,4.3232,1028000
01/14/1987,4.3098,4.3502,4.2626,4.3434,1489600
01/15/1987,4.3502,4.3906,4.3367,4.3636,1710400
01/16/1987,4.3771,4.4444,4.3636,4.3771,1640000
01/19/1987,4.3232,4.3771,4.2828,4.3636,1085600
01/20/1987,4.3771,4.5118,4.3636,4.4848,1477600
01/21/1987,4.4848,4.4848,4.2828,4.3098,1445600
01/22/1987,4.3367,4.4646,4.3367,4.4444,920800
01/23/1987,4.4714,4.6869,4.3771,4.4848,2648800
01/26/1987,4.4579,4.4579,4.3906,4.4175,965600
01/27/1987,4.431,4.5522,4.431,4.4916,932800
01/28/1987,4.4983,4.6061,4.4848,4.5656,985600
01/29/1987,4.6195,4.633,4.5926,4.6263,980000
01/30/1987,4.6397,4.7003,4.5252,4.6869,831200
02/02/1987,4.7071,4.7946,4.6734,4.7677,1322400
02/03/1987,4.7744,4.8081,4.7138,4.7542,1951200
02/04/1987,4.7744,4.7744,4.7138,4.7677,899200
02/05/1987,4.7677,4.7811,4.6869,4.7003,1313600
02/06/1987,4.7205,4.7542,4.6936,4.7273,667200
02/09/1987,4.7273,4.7273,4.6465,4.6869,776000
02/10/1987,4.5535,4.6009,4.4722,4.5535,1310400
02/11/1987,4.5535,4.6484,4.5196,4.6484,499200
02/12/1987,4.6484,4.7026,4.5535,4.5806,948800
02/13/1987,4.6077,4.6619,4.5806,4.6551,797600
02/17/1987,4.5535,4.6348,4.54,4.6348,1221600
02/18/1987,4.7907,4.7974,4.6823,4.7297,1248800
02/19/1987,4.7432,4.7432,4.7229,4.7297,987200
02/20/1987,4.7161,4.7297,4.6755,4.689,502400
02/23/1987,4.6619,4.689,4.5535,4.6145,1544000
02/24/1987,4.5874,4.6009,4.5467,4.5874,1500000
02/25/1987,4.5738,4.5874,4.54,4.5535,1120800
02/26/1987,4.5535,4.5942,4.54,4.5874,695200
02/27/1987,4.5738,4.5806,4.54,4.5671,3137600
03/02/1987,4.5535,4.5942,4.54,4.5942,556800
03/03/1987,4.5806,4.6077,4.5535,4.6077,527200
03/04/1987,4.6213,4.6416,4.5806,4.5942,1098400
03/05/1987,4.5942,4.6145,4.5671,4.5806,1231200
03/06/1987,4.6009,4.6348,4.5942,4.6145,1818400
03/09/1987,4.6484,4.7636,4.6077,4.7161,809600
03/10/1987,4.7432,4.7568,4.6958,4.7297,589600
03/11/1987,4.7839,4.811,4.7229,4.7365,720800
03/12/1987,4.7636,4.7703,4.7297,4.7636,492000
03/13/1987,4.7161,4.8788,4.6619,4.7161,522400
03/16/1987,4.7297,4.7297,4.6077,4.6484,509200
03/17/1987,4.6213,4.8788,4.6077,4.8381,621200
03/18/1987,4.8652,4.9059,4.8245,4.8788,578000
03/19/1987,4.8788,4.9872,4.8517,4.9736,682800
03/20/1987,4.9872,5.1498,4.933,5.1498,1208800
03/23/1987,5.1498,5.3395,5.1227,5.3124,1698000
03/24/1987,5.3124,5.3937,5.1634,5.204,993600
03/25/1987,5.2853,5.3124,5.1498,5.2311,1198400
03/26/1987,5.2582,5.3802,5.2311,5.2447,455600
03/27/1987,5.1227,5.1498,4.9059,5.0007,654800
03/30/1987,4.6619,4.8788,4.6348,4.811,1630000
03/31/1987,4.8245,4.8517,4.7297,4.7839,819200
04/01/1987,4.811,5.0143,4.7703,4.9059,998800
04/02/1987,4.933,5.0007,4.9194,4.9872,786000
04/03/1987,4.9059,5.0956,4.811,5.0956,619200
04/06/1987,5.1227,5.2582,5.1227,5.2176,697600
04/07/1987,5.2176,5.2989,5.1362,5.1362,558400
04/08/1987,5.1091,5.1227,4.8245,5.082,715200
04/09/1987,5.0549,5.082,4.8923,4.8923,429600
04/10/1987,4.8517,4.9465,4.7703,4.8381,586000
04/13/1987,4.8652,4.8652,4.4451,4.5535,832800
04/14/1987,4.4722,4.5806,4.4044,4.4315,1661600
04/15/1987,4.5535,4.5806,4.418,4.4993,821200
04/16/1987,4.5806,4.689,4.5671,4.6619,781200
04/20/1987,4.689,4.7161,4.5264,4.5535,558000
04/21/1987,4.5129,4.6348,4.4586,4.6348,612400
04/22/1987,4.6348,4.6348,4.3909,4.4451,946800
04/23/1987,4.4451,4.4993,4.296,4.3638,1186000
04/24/1987,4.3367,4.3502,4.174,4.2147,792800
04/27/1987,4.1876,4.3096,4.0385,4.2825,2089200
04/28/1987,4.3096,4.3773,4.2825,4.2825,789200
04/29/1987,4.3367,4.4451,4.3096,4.3773,1150400
04/30/1987,4.4451,4.5128,4.3909,4.5128,748000
05/01/1987,4.54,4.6348,4.4857,4.5942,1080400
05/04/1987,4.5671,4.6077,4.5128,4.5128,913200
05/05/1987,4.5696,4.6242,4.515,4.5696,1291600
05/06/1987,4.5832,4.6787,4.5696,4.6651,786800
05/07/1987,4.6787,4.706,4.6242,4.6378,926000
05/08/1987,4.6787,4.6924,4.5832,4.6651,798000
05/11/1987,4.6378,4.706,4.6242,4.6514,1415200
05/12/1987,4.5287,4.6378,4.515,4.5969,698000
05/13/1987,4.6105,4.6105,4.4605,4.556,905600
05/14/1987,4.5832,4.5832,4.4605,4.5014,675200
05/15/1987,4.5287,4.556,4.3513,4.365,817600
05/18/1987,4.3377,4.365,4.1877,4.2968,852000
05/19/1987,4.2831,4.2831,4.0922,4.1331,1039200
05/20/1987,4.1467,4.174,3.983,4.0649,1605200
05/21/1987,4.1195,4.1467,4.0103,4.0103,875200
05/22/1987,4.0649,4.1331,4.0376,4.0649,618800
05/26/1987,4.1467,4.2422,4.1331,4.2422,633200
05/27/1987,4.2149,4.3104,4.174,4.2559,672000
05/28/1987,4.2831,4.2968,4.1467,4.2149,850400
05/29/1987,4.2286,4.2422,4.2013,4.2422,1093200
06/01/1987,4.2422,4.3241,4.1877,4.2831,1023600
06/02/1987,4.2559,4.365,4.2149,4.3513,614000
06/03/1987,4.3241,4.365,4.2149,4.3241,1229600
06/04/1987,4.3241,4.4605,4.3241,4.4468,1046400
06/05/1987,4.4605,4.5014,4.3923,4.4195,822800
06/08/1987,4.4468,4.4605,4.3513,4.3923,561600
06/09/1987,4.3513,4.4605,4.3377,4.4195,799600
06/10/1987,4.4741,4.5014,4.4059,4.4605,1170800
06/11/1987,4.4605,4.4878,4.4059,4.4878,830800
06/12/1987,4.4878,4.5014,4.4332,4.5014,1228000
06/15/1987,4.515,4.556,4.4878,4.556,708000
06/16/1987,4.556,4.7878,4.5287,4.7878,2381600
06/17/1987,4.8015,5.0743,4.7742,5.0334,2495200
06/18/1987,5.047,5.3471,5.0334,5.238,2391600
06/19/1987,5.2925,5.429,5.047,5.1834,1922800
06/22/1987,5.2925,5.4153,5.238,5.4153,1819600
06/23/1987,5.4017,5.8382,5.388,5.4562,3246800
06/24/1987,5.388,5.5381,5.3744,5.4562,1883200
06/25/1987,5.429,5.4699,5.238,5.2653,1936400
06/26/1987,5.238,5.3744,5.2107,5.2925,1087200
06/29/1987,5.3471,5.4562,5.2653,5.2653,1318000
06/30/1987,5.2516,5.3062,5.1016,5.1289,1732400
07/01/1987,5.0743,5.1289,4.9652,5.0197,1768000
07/02/1987,5.0334,5.1016,4.9788,4.9788,1036800
07/06/1987,5.0197,5.238,4.9788,5.047,1564400
07/07/1987,5.1152,5.2789,5.1016,5.2653,1748800
07/08/1987,5.238,5.429,5.2107,5.388,1861600
07/09/1987,5.4017,5.5926,5.2925,5.388,2982800
07/10/1987,5.4017,5.4835,5.3198,5.388,1258400
07/13/1987,5.3607,5.3744,5.2925,5.3607,1294800
07/14/1987,5.3607,5.3744,5.2789,5.2925,843600
07/15/1987,5.2789,5.3198,5.2107,5.2653,825200
07/16/1987,5.3471,5.3471,5.238,5.2925,1436400
07/17/1987,5.3062,5.3198,5.2516,5.2789,881200
07/20/1987,5.2107,5.2925,5.1561,5.2107,1275600
07/21/1987,5.1834,5.1971,5.0334,5.047,1709600
07/22/1987,5.1425,5.2925,5.047,5.2789,1846000
07/23/1987,5.2789,5.2789,5.1561,5.1834,645200
07/24/1987,5.2243,5.238,5.1152,5.1425,808800
07/27/1987,5.1561,5.238,5.1016,5.1561,467600
07/28/1987,5.1698,5.1834,5.0607,5.1425,806000
07/29/1987,5.1698,5.1971,5.1425,5.1698,1122400
07/30/1987,5.1834,5.3471,5.1834,5.2789,1800000
07/31/1987,5.2925,5.5654,5.2653,5.4153,1598400
08/03/1987,5.3471,5.4972,5.3198,5.3607,1555600
08/04/1987,5.2806,5.3904,5.2258,5.2806,1030800
08/05/1987,5.3081,5.4727,5.2944,5.2944,1618400
08/06/1987,5.2806,5.3629,5.2258,5.3629,1084000
08/07/1987,5.3355,5.4178,5.3218,5.3355,1004400
08/10/1987,5.3629,5.4041,5.3218,5.3904,518000
08/11/1987,5.4178,5.459,5.3218,5.3355,1504000
08/12/1987,5.3629,5.459,5.3218,5.3767,1993200
08/13/1987,5.4178,5.5275,5.3218,5.459,3560800
08/14/1987,5.4727,5.5001,5.3767,5.4041,1664800
08/17/1987,5.3767,5.4315,5.3355,5.3629,1200800
08/18/1987,5.3355,5.3629,5.1572,5.2258,765200
08/19/1987,5.1846,5.2532,5.1023,5.2532,1087600
08/20/1987,5.2395,5.3218,5.1709,5.2395,1305600
08/21/1987,5.2669,5.3492,5.2121,5.3081,1856000
08/24/1987,5.3081,5.3218,4.9789,5.2395,974800
08/25/1987,5.2395,5.3081,5.1846,5.2121,2133600
08/26/1987,5.2669,5.3081,5.2258,5.2669,1095200
08/27/1987,5.2806,5.3629,5.2395,5.3218,1114000
08/28/1987,5.2944,5.3629,5.1846,5.1846,794400
08/31/1987,5.2395,5.3355,5.1846,5.3355,1075200
09/01/1987,5.2669,5.5138,5.2395,5.4178,2578800
09/02/1987,5.4315,5.4452,5.2806,5.3492,1850400
09/03/1987,5.3218,5.3492,5.0612,5.1435,1555600
09/04/1987,5.1984,5.2669,4.9926,5.0475,1059200
09/08/1987,5.0063,5.0749,4.8829,4.9652,1324400
09/09/1987,4.9515,4.9789,4.8006,4.8555,1769200
09/10/1987,4.8966,4.924,4.8555,4.8692,1961200
09/11/1987,4.9926,5.0475,4.8692,4.9652,1462400
09/14/1987,4.9652,5.02,4.9377,5.0063,1116800
09/15/1987,5.0063,5.0063,4.8966,4.9103,1028400
09/16/1987,4.9652,4.9652,4.8555,4.8829,2021200
09/17/1987,4.924,5.0338,4.732,5.0338,2184400
09/18/1987,5.1435,5.1709,4.9926,5.0612,2810400
09/21/1987,5.0749,5.1023,4.9103,4.9515,1180000
09/22/1987,4.9926,5.0475,4.8555,5.0063,896000
09/23/1987,5.0063,5.0749,4.9789,5.0063,1238400
09/24/1987,4.9926,5.0612,4.9652,4.9926,866000
09/25/1987,4.9652,5.0063,4.9515,4.9926,568000
09/28/1987,5.02,5.0475,4.9926,5.02,1240400
09/29/1987,5.02,5.0475,4.9926,5.0475,652000
09/30/1987,5.0475,5.0749,4.924,4.9652,1635200
10/01/1987,4.9926,5.1298,4.9789,5.1161,3055600
10/02/1987,5.1161,5.1298,5.1023,5.1023,604000
10/05/1987,5.0886,5.1435,5.0749,5.1435,522400
10/06/1987,5.1161,5.1298,5.0612,5.0749,1191200
10/07/1987,5.0886,5.0886,4.9789,4.9926,974800
10/08/1987,5.02,5.02,4.8829,4.924,1002800
10/09/1987,4.9103,4.9652,4.828,4.8555,1302800
10/12/1987,4.828,4.828,4.7457,4.8006,1233600
10/13/1987,4.8555,4.9377,4.8143,4.9103,1670800
10/14/1987,4.828,4.8829,4.7457,4.8006,730000
10/15/1987,4.7594,4.7869,4.6086,4.636,1977200
10/16/1987,4.6223,4.6634,4.3617,4.3891,2075200
10/19/1987,4.2794,4.2794,3.4016,3.4839,3679200
10/20/1987,3.429,3.6759,3.1821,3.4016,7401600
10/21/1987,3.6484,3.9502,3.6347,3.8953,5020800
10/22/1987,3.7856,3.8268,3.4839,3.621,3896400
10/23/1987,3.525,3.6484,3.4564,3.5113,2158400
10/26/1987,3.3467,3.4016,3.1821,3.2644,1717600
10/27/1987,3.2918,3.3741,3.1272,3.237,1009200
10/28/1987,3.0175,3.1821,3.0175,3.0861,1024400
10/29/1987,3.1684,3.2918,3.1272,3.2233,1152000
10/30/1987,3.3604,3.429,3.2918,3.3604,2007600
11/02/1987,3.429,3.6484,3.429,3.6484,752000
11/03/1987,3.621,3.7307,3.5113,3.7307,1576400
11/04/1987,3.7224,3.8193,3.6394,3.6532,846400
11/05/1987,3.6117,3.8055,3.5979,3.764,1138400
11/06/1987,3.847,3.8747,3.6532,3.6532,485200
11/09/1987,3.6533,3.6533,3.3903,3.3903,1444000
11/10/1987,3.2658,3.3211,3.2104,3.2104,1305200
11/11/1987,3.2104,3.4872,3.2104,3.3903,1202800
11/12/1987,3.4595,3.6532,3.4595,3.5702,968800
11/13/1987,3.6394,3.6809,3.4318,3.4318,639600
11/16/1987,3.5149,3.6532,3.5149,3.5287,1096000
11/17/1987,3.5564,3.5702,3.4457,3.5702,653600
11/18/1987,3.5425,3.7363,3.5425,3.6948,1274800
11/19/1987,3.6809,3.8193,3.6532,3.6809,1178000
11/20/1987,3.6532,3.8885,3.6256,3.8747,968800
11/23/1987,3.8747,3.8885,3.8193,3.8885,1166400
11/24/1987,3.8608,3.9577,3.8608,3.93,2592400
11/25/1987,3.93,3.93,3.7363,3.8193,1238800
11/27/1987,3.7916,3.8055,3.7086,3.7224,481600
11/30/1987,3.5979,3.7086,3.4595,3.5425,1590400
12/01/1987,3.5425,3.6809,3.5149,3.6256,1116000
12/02/1987,3.6256,3.6671,3.5425,3.6394,450400
12/03/1987,3.6117,3.6394,3.4457,3.4457,1567200
12/04/1987,3.4457,3.5149,3.3765,3.418,1307200
12/07/1987,3.3903,3.5979,3.3903,3.501,615200
12/08/1987,3.5425,3.5979,3.418,3.5149,941200
12/09/1987,3.4595,3.6948,3.4595,3.6948,1912800
12/10/1987,3.5979,3.8193,3.5425,3.5564,942400
12/11/1987,3.5702,3.6809,3.4872,3.6809,652800
12/14/1987,3.6671,3.8608,3.6671,3.7916,1797200
12/15/1987,3.7363,3.93,3.7363,3.9023,637600
12/16/1987,3.8747,3.93,3.8331,3.9023,565600
12/17/1987,3.93,3.9438,3.8193,3.847,1291200
12/18/1987,3.93,3.9438,3.9023,3.9438,1926000
12/21/1987,3.8885,3.93,3.8193,3.8747,528000
12/22/1987,3.8747,3.9023,3.7778,3.847,650800
12/23/1987,3.8608,3.8885,3.8193,3.8747,683600
12/24/1987,3.847,3.8608,3.8055,3.847,294000
12/28/1987,3.764,3.7778,3.6809,3.7224,364400
12/29/1987,3.7363,3.7501,3.6948,3.7501,568800
12/30/1987,3.7086,3.7778,3.7086,3.7363,595600
12/31/1987,3.7086,3.8055,3.6671,3.6671,601600
01/04/1988,3.7363,4.0961,3.7086,3.9577,664000
01/05/1988,4.0407,4.0407,3.9023,3.9854,1014800
01/06/1988,3.9854,4.0684,3.93,4.0269,1475600
01/07/1988,4.0269,4.1237,3.9023,4.013,2387600
01/08/1988,3.9854,3.9992,3.6256,3.6256,970000
01/11/1988,3.6532,3.7363,3.6117,3.7086,759200
01/12/1988,3.7086,3.7501,3.6256,3.7086,528000
01/13/1988,3.6671,3.7363,3.5979,3.6532,454800
01/14/1988,3.6809,3.7224,3.5702,3.6532,1061200
01/15/1988,3.7363,3.8055,3.6532,3.6809,828000
01/18/1988,3.6809,3.764,3.6532,3.6809,385200
01/19/1988,3.6532,3.8747,3.6532,3.7086,737200
01/20/1988,3.6671,3.6809,3.5149,3.5564,1120400
01/21/1988,3.5979,3.6256,3.4595,3.4872,1862400
01/22/1988,3.5149,3.5979,3.501,3.5841,416000
01/25/1988,3.6256,3.8055,3.6256,3.7778,641200
01/26/1988,3.764,3.7778,3.6809,3.7224,434000
01/27/1988,3.7363,3.7501,3.5425,3.6256,718800
01/28/1988,3.6671,3.7916,3.6533,3.7916,776800
01/29/1988,3.7363,3.8055,3.6809,3.7916,601200
02/01/1988,3.7778,3.847,3.7778,3.847,543200
02/02/1988,3.764,3.847,3.7363,3.847,670800
02/03/1988,3.847,3.9023,3.7363,3.7916,1468800
02/04/1988,3.764,3.7916,3.6948,3.7363,1864800
02/05/1988,3.7224,3.7501,3.6117,3.6809,1898000
02/08/1988,3.6809,3.7224,3.6256,3.7224,509600
02/09/1988,3.7224,3.7916,3.7224,3.764,654800
02/10/1988,3.764,3.8055,3.764,3.7916,507200
02/11/1988,3.7778,3.847,3.764,3.8331,434400
02/12/1988,3.8608,3.9438,3.8608,3.9438,1358400
02/16/1988,3.9773,4.075,3.9355,4.0611,1521600
02/17/1988,4.075,4.1867,4.0471,4.1309,2310800
02/18/1988,4.1029,4.2425,4.075,4.1727,1151600
02/19/1988,4.2285,4.4658,4.2006,4.41,2069200
02/22/1988,4.396,4.4518,4.2983,4.4518,977600
02/23/1988,4.4379,4.5077,4.3262,4.396,1187200
02/24/1988,4.4658,4.5774,4.3821,4.4518,1755200
02/25/1988,4.4797,4.6333,4.3541,4.3541,2220000
02/26/1988,4.3821,4.41,4.3123,4.3541,818400
02/29/1988,4.3262,4.4379,4.2983,4.4379,599600
03/01/1988,4.4379,4.4518,4.3541,4.396,474000
03/02/1988,4.3681,4.4518,4.3541,4.4518,486800
03/03/1988,4.5077,4.6751,4.4797,4.5914,3058800
03/04/1988,4.5774,4.5774,4.41,4.5216,965600
03/07/1988,4.5216,4.5495,4.4379,4.4937,928800
03/08/1988,4.5356,4.5774,4.4658,4.5635,1054400
03/09/1988,4.5356,4.5495,4.4379,4.4518,618400
03/10/1988,4.4518,4.4658,4.3681,4.41,990800
03/11/1988,4.3541,4.396,4.2704,4.3262,728400
03/14/1988,4.3541,4.3541,4.3123,4.3262,418000
03/15/1988,4.3262,4.3681,4.2983,4.3681,451600
03/16/1988,4.3541,4.4239,4.3123,4.4239,446000
03/17/1988,4.396,4.5216,4.396,4.4379,766000
03/18/1988,4.4379,4.4937,4.41,4.4797,1423600
03/21/1988,4.4379,4.4797,4.3821,4.4518,506000
03/22/1988,4.4658,4.5495,4.4518,4.5216,580000
03/23/1988,4.5216,4.5495,4.4379,4.4379,436000
03/24/1988,4.3681,4.41,4.2844,4.3681,1446000
03/25/1988,4.3541,4.3681,4.2565,4.2983,715200
03/28/1988,4.2983,4.3123,4.1867,4.2146,402800
03/29/1988,4.2704,4.2983,4.1867,4.2844,345200
03/30/1988,4.3821,4.396,4.2704,4.3123,670000
03/31/1988,4.3262,4.3821,4.2983,4.3541,414800
04/04/1988,4.3821,4.396,4.2983,4.396,515600
04/05/1988,4.3821,4.4239,4.3541,4.41,340400
04/06/1988,4.41,4.4937,4.396,4.4937,764400
04/07/1988,4.5774,4.6053,4.5356,4.5914,1063600
04/08/1988,4.5774,4.717,4.5774,4.717,1109600
04/11/1988,4.6751,4.7589,4.6472,4.7449,1349600
04/12/1988,4.717,4.7309,4.6891,4.7309,493600
04/13/1988,4.7309,4.7449,4.6751,4.717,611600
04/14/1988,4.6333,4.6333,4.41,4.41,706800
04/15/1988,4.41,4.4937,4.3541,4.4937,643600
04/18/1988,4.4239,4.4797,4.4239,4.4797,538000
04/19/1988,4.4658,4.5077,4.3681,4.3681,1149200
04/20/1988,4.3681,4.3681,4.2704,4.2844,1258800
04/21/1988,4.3123,4.5495,4.3123,4.4239,2023600
04/22/1988,4.4379,4.5635,4.4379,4.5495,800400
04/25/1988,4.5216,4.6193,4.4937,4.5216,488000
04/26/1988,4.5077,4.7309,4.5077,4.7309,1281200
04/27/1988,4.7589,4.8286,4.7449,4.8007,1850000
04/28/1988,4.8007,4.8426,4.7449,4.8147,1218800
04/29/1988,4.8007,4.8147,4.7449,4.7868,1101600
05/02/1988,4.7589,4.7728,4.6193,4.703,1128400
05/03/1988,4.703,4.717,4.6612,4.717,404000
05/04/1988,4.7086,4.7367,4.6804,4.6804,1030000
05/05/1988,4.6664,4.6664,4.5961,4.6102,484800
05/06/1988,4.6102,4.6383,4.5821,4.6102,578800
05/09/1988,4.5961,4.6102,4.5821,4.5961,502400
05/10/1988,4.6102,4.6523,4.5961,4.6102,626000
05/11/1988,4.5539,4.5961,4.5118,4.5961,705200
05/12/1988,4.5961,4.6804,4.5821,4.6383,721600
05/13/1988,4.6945,4.8069,4.6664,4.8069,1312400
05/16/1988,4.8069,4.8351,4.7788,4.7929,721600
05/17/1988,4.8351,4.8491,4.7788,4.7788,395600
05/18/1988,4.7507,4.7929,4.6804,4.7226,1370000
05/19/1988,4.6664,4.6804,4.5821,4.5961,1310000
05/20/1988,4.5961,4.6664,4.5961,4.6664,717200
05/23/1988,4.6523,4.6664,4.5399,4.5399,817600
05/24/1988,4.5399,4.5539,4.5118,4.5539,588400
05/25/1988,4.5821,4.6102,4.5258,4.5539,879200
05/26/1988,4.568,4.6102,4.5399,4.6102,478800
05/27/1988,4.5961,4.6102,4.5258,4.5539,746000
05/31/1988,4.568,4.6664,4.5539,4.5961,547200
06/01/1988,4.6383,4.6664,4.5961,4.6664,1259600
06/02/1988,4.6664,4.6945,4.6242,4.6945,605200
06/03/1988,4.6945,4.7788,4.6664,4.7788,878400
06/06/1988,4.7788,4.8069,4.6523,4.7788,608000
06/07/1988,4.7648,4.7788,4.6383,4.6945,864400
06/08/1988,4.7507,4.8351,4.7226,4.8351,1158400
06/09/1988,4.8491,4.9616,4.8351,4.8491,1306400
06/10/1988,4.8772,4.9334,4.8351,4.8772,395600
06/13/1988,4.9334,4.9334,4.8913,4.9053,356000
06/14/1988,5.0037,5.0178,4.9616,4.9897,1626800
06/15/1988,4.9756,5.1302,4.9756,5.0881,2314800
06/16/1988,5.074,5.074,4.9475,5.0037,952400
06/17/1988,5.0037,5.0037,4.9194,4.9475,1290000
06/20/1988,4.9475,5.0037,4.9194,4.9756,590000
06/21/1988,5.0318,5.074,4.9475,5.0318,1292400
06/22/1988,5.0881,5.2145,5.0459,5.2005,2273200
06/23/1988,5.1864,5.2708,5.1583,5.2146,1383600
06/24/1988,5.2145,5.2286,5.1443,5.1864,522800
06/27/1988,5.1443,5.1583,5.0318,5.1021,1053200
06/28/1988,5.074,5.1162,5.0318,5.1021,704000
06/29/1988,5.074,5.1021,4.9475,5.0459,812400
06/30/1988,5.0599,5.1443,5.0178,5.1302,611200
07/01/1988,5.1021,5.1583,5.0599,5.1162,1051200
07/05/1988,5.1302,5.2708,5.0881,5.1583,836000
07/06/1988,5.1724,5.2005,5.074,5.1021,773600
07/07/1988,5.0881,5.1162,5.0318,5.0318,672800
07/08/1988,5.0178,5.1162,5.0178,5.0459,562000
07/11/1988,5.0178,5.1302,5.0178,5.0459,267600
07/12/1988,5.1443,5.1443,5.0459,5.0881,856000
07/13/1988,5.1021,5.1302,5.0599,5.0881,551200
07/14/1988,5.0881,5.1302,5.0599,5.1162,748800
07/15/1988,5.1302,5.1443,5.0881,5.1021,876800
07/18/1988,5.1021,5.1021,5.0037,5.0459,476400
07/19/1988,5.0178,5.0459,4.9053,4.9756,506000
07/20/1988,4.9616,5.0318,4.9334,4.9897,544000
07/21/1988,4.9897,5.0178,4.9475,4.9616,718800
07/22/1988,4.9334,4.9756,4.8772,4.8913,638400
07/25/1988,4.9053,4.9475,4.8632,4.9194,569600
07/26/1988,4.9053,4.9616,4.8772,4.9053,380400
07/27/1988,4.9334,4.9756,4.821,4.8351,757200
07/28/1988,4.8632,4.9334,4.8351,4.9053,574400
07/29/1988,4.9334,5.0459,4.8913,5.0459,829600
08/01/1988,5.0178,5.0881,5.0178,5.0599,331600
08/02/1988,5.0881,5.1021,4.9475,5.0037,612400
08/03/1988,4.9756,5.074,4.9475,5.0178,990800
08/04/1988,5.0138,5.0563,4.9572,4.9855,411200
08/05/1988,4.9005,4.9855,4.9005,4.9855,326800
08/08/1988,4.9855,5.0138,4.943,4.943,366000
08/09/1988,4.9713,4.9713,4.8863,4.9005,616400
08/10/1988,4.8722,4.9005,4.6739,4.7022,885200
08/11/1988,4.7589,4.8155,4.5889,4.6314,954000
08/12/1988,4.6314,4.6881,4.6172,4.6881,753200
08/15/1988,4.6881,4.6881,4.6456,4.6456,442000
08/16/1988,4.6172,4.6739,4.6172,4.6456,601600
08/17/1988,4.6456,4.7022,4.6456,4.6739,658000
08/18/1988,4.6597,4.7305,4.6597,4.7305,565200
08/19/1988,4.7164,4.7305,4.6881,4.7164,596400
08/22/1988,4.6739,4.6739,4.6031,4.6172,307600
08/23/1988,4.6172,4.6456,4.5889,4.6172,276000
08/24/1988,4.6456,4.7022,4.6172,4.7022,341600
08/25/1988,4.7022,4.7589,4.6456,4.7589,568800
08/26/1988,4.7872,4.7872,4.6881,4.7022,2224400
08/29/1988,4.6739,4.7872,4.6739,4.7872,243600
08/30/1988,4.8014,4.8438,4.7589,4.8297,1024800
08/31/1988,4.8297,4.8438,4.7305,4.7305,306800
09/01/1988,4.7164,4.7589,4.6172,4.7447,1120400
09/02/1988,4.7872,4.858,4.773,4.8438,564400
09/06/1988,4.8722,4.8722,4.8155,4.8722,568000
09/07/1988,4.8722,4.9147,4.858,4.8863,740000
09/08/1988,4.8722,4.9147,4.7589,4.7589,458400
09/09/1988,4.7589,4.8438,4.6597,4.8155,716000
09/12/1988,4.8297,4.8438,4.7589,4.7872,350400
09/13/1988,4.8155,4.8297,4.8014,4.8155,714000
09/14/1988,4.858,4.9005,4.8438,4.8863,680400
09/15/1988,4.8863,4.9288,4.8722,4.9147,720400
09/16/1988,4.8722,4.9572,4.8297,4.9572,775600
09/19/1988,4.9572,4.9713,4.9147,4.9572,322000
09/20/1988,4.9288,4.9572,4.9005,4.9572,417200
09/21/1988,4.9713,4.9713,4.943,4.9713,426000
09/22/1988,4.9572,4.9713,4.9288,4.9572,231200
09/23/1988,4.943,4.9572,4.9005,4.9288,219200
09/26/1988,4.9288,4.9713,4.8863,4.9005,639600
09/27/1988,4.9005,4.9288,4.8155,4.8438,388400
09/28/1988,4.8155,4.8438,4.8014,4.8438,385200
09/29/1988,4.858,4.943,4.8297,4.9147,356000
09/30/1988,4.8863,5.0563,4.8863,4.8863,798800
10/03/1988,4.9005,4.9572,4.8863,4.9572,335200
10/04/1988,4.9572,4.9572,4.9147,4.9572,250000
10/05/1988,4.9572,4.9572,4.9005,4.9288,498400
10/06/1988,4.9288,5.028,4.9147,4.9855,614000
10/07/1988,5.0421,5.0988,5.028,5.0988,1020000
10/10/1988,5.0705,5.113,5.0421,5.0988,329600
10/11/1988,5.0988,5.113,5.0705,5.0988,1147200
10/12/1988,4.9855,5.028,4.9572,4.9855,569600
10/13/1988,4.9288,4.9713,4.9005,4.9572,1368800
10/14/1988,4.9713,5.0138,4.9288,4.943,941600
10/17/1988,4.9713,4.9996,4.9005,4.943,432000
10/18/1988,4.9147,4.943,4.8155,4.8722,994000
10/19/1988,4.8722,4.8722,4.7447,4.7589,569600
10/20/1988,4.8014,4.8155,4.7447,4.8014,532400
10/21/1988,4.7872,4.8722,4.7589,4.8297,1250000
10/24/1988,4.773,4.8014,4.7164,4.7305,985200
10/25/1988,4.7447,4.7589,4.7022,4.7305,619200
10/26/1988,4.7589,4.7589,4.6881,4.7305,607200
10/27/1988,4.7305,4.7447,4.6739,4.7164,912800
10/28/1988,4.6881,4.7872,4.6881,4.7022,452800
10/31/1988,4.7447,4.858,4.7022,4.858,503200
11/01/1988,4.858,4.858,4.7022,4.7872,602800
11/02/1988,4.7589,4.7589,4.6881,4.7305,859200
11/03/1988,4.7589,4.7589,4.7022,4.7022,454800
11/04/1988,4.7268,4.7411,4.5983,4.5983,472400
11/07/1988,4.6268,4.6268,4.4697,4.484,734400
11/08/1988,4.5126,4.5269,4.4269,4.4269,1600000
11/09/1988,4.4269,4.4412,4.3126,4.3841,1478400
11/10/1988,4.3698,4.3841,4.3269,4.3698,1568000
11/11/1988,4.3698,4.3698,4.2555,4.2841,944800
11/14/1988,4.3269,4.3698,4.2698,4.2984,678000
11/15/1988,4.3269,4.4269,4.3269,4.4269,674000
11/16/1988,4.4269,4.4412,4.1841,4.2127,1105200
11/17/1988,4.227,4.2555,4.1413,4.1984,521200
11/18/1988,4.2127,4.2555,4.2127,4.2412,426000
11/21/1988,4.227,4.227,4.1698,4.2127,481600
11/22/1988,4.1984,4.2555,4.1984,4.2412,917200
11/23/1988,4.2555,4.2698,4.227,4.2698,613200
11/25/1988,4.227,4.2412,4.2127,4.227,315600
11/28/1988,4.2412,4.2412,4.1698,4.2127,476800
11/29/1988,4.1841,4.2698,4.1841,4.2555,758400
11/30/1988,4.2698,4.2698,4.1984,4.2127,840800
12/01/1988,4.2412,4.3126,4.2127,4.2841,624400
12/02/1988,4.2698,4.3269,4.2555,4.2984,408000
12/05/1988,4.3269,4.4555,4.3126,4.3983,1079200
12/06/1988,4.4269,4.4555,4.3983,4.4126,568000
12/07/1988,4.4555,4.4983,4.4412,4.4697,612400
12/08/1988,4.4555,4.4697,4.4126,4.4269,372800
12/09/1988,4.4555,4.5126,4.4412,4.4697,307200
12/12/1988,4.4412,4.484,4.4126,4.4126,523200
12/13/1988,4.4412,4.4697,4.4126,4.4412,463600
12/14/1988,4.4269,4.4555,4.4126,4.4269,314800
12/15/1988,4.4412,4.484,4.3983,4.4269,552800
12/16/1988,4.4555,4.4983,4.4126,4.4983,809200
12/19/1988,4.4697,4.5983,4.4697,4.584,508000
12/20/1988,4.5554,4.6268,4.4412,4.484,464400
12/21/1988,4.484,4.584,4.484,4.5126,438400
12/22/1988,4.5411,4.5411,4.484,4.5411,381200
12/23/1988,4.5411,4.5697,4.5126,4.5697,353600
12/27/1988,4.5554,4.584,4.5411,4.584,297600
12/28/1988,4.584,4.5983,4.5554,4.584,418800
12/29/1988,4.5697,4.6125,4.5697,4.6125,701200
12/30/1988,4.584,4.6268,4.584,4.6125,266400
01/03/1989,4.6125,4.6125,4.5554,4.584,509600
01/04/1989,4.6125,4.7553,4.584,4.7268,855600
01/05/1989,4.7411,4.7839,4.6982,4.7125,562400
01/06/1989,4.6982,4.8267,4.6982,4.8125,926800
01/09/1989,4.841,4.8839,4.8125,4.8553,580000
01/10/1989,4.8553,4.8981,4.7982,4.8125,318800
01/11/1989,4.8125,4.8553,4.7982,4.8125,3234400
01/12/1989,4.7696,4.8267,4.7411,4.7982,458800
01/13/1989,4.7982,4.8553,4.7553,4.7696,452000
01/16/1989,4.7696,4.8696,4.7411,4.8267,385600
01/17/1989,4.7553,4.7982,4.7553,4.7982,415600
01/18/1989,4.7696,4.8267,4.7696,4.8125,683200
01/19/1989,4.7839,4.7982,4.7268,4.7411,1252400
01/20/1989,4.7268,4.8267,4.7268,4.7982,1295200
01/23/1989,4.8267,4.8696,4.7982,4.7982,1000800
01/24/1989,4.7982,4.8553,4.7839,4.8553,2128000
01/25/1989,4.8839,4.8981,4.8267,4.8839,892800
01/26/1989,4.8553,4.9981,4.841,4.941,924000
01/27/1989,4.9838,5.0552,4.9695,5.0267,1406400
01/30/1989,5.0838,5.0981,5.0552,5.0838,499200
01/31/1989,5.0838,5.1409,5.0695,5.1409,788400
02/01/1989,5.1409,5.1695,5.0838,5.0981,533200
02/02/1989,5.0981,5.0981,5.0409,5.0838,673600
02/03/1989,5.0552,5.0695,5.0267,5.0409,568000
02/06/1989,5.0409,5.0695,4.9981,5.0695,620800
02/07/1989,5.0695,5.1409,5.0267,5.1409,622800
02/08/1989,5.1266,5.1695,5.1123,5.1552,483200
02/09/1989,5.0838,5.1695,5.0267,5.0552,886800
02/10/1989,5.0838,5.0838,4.941,4.9695,584800
02/13/1989,4.9124,4.9695,4.8981,4.9553,520000
02/14/1989,4.9656,4.98,4.9368,4.98,702000
02/15/1989,4.9512,5.0088,4.9512,5.0088,535200
02/16/1989,4.98,4.9944,4.9081,4.9081,583200
02/17/1989,4.9368,4.98,4.9081,4.98,385200
02/21/1989,4.98,4.9944,4.9224,4.9656,674800
02/22/1989,4.9656,4.98,4.9224,4.9656,686800
02/23/1989,4.9081,4.9512,4.8793,4.9368,532800
02/24/1989,4.9512,4.9656,4.8793,4.8937,431200
02/27/1989,4.8649,4.8937,4.8505,4.8937,264400
02/28/1989,4.8793,4.9224,4.8649,4.9224,826000
03/01/1989,4.9368,4.9368,4.8937,4.8937,755200
03/02/1989,4.9512,5.0088,4.9368,4.98,476400
03/03/1989,4.98,5.0376,4.9656,5.0232,721600
03/06/1989,5.0232,5.0376,4.9944,5.0088,680400
03/07/1989,5.0376,5.124,5.0088,5.0808,861200
03/08/1989,5.0808,5.124,5.052,5.0952,509200
03/09/1989,5.0664,5.0808,5.0232,5.0376,498000
03/10/1989,5.0088,5.0664,4.98,5.0664,508400
03/13/1989,5.0376,5.0664,5.0232,5.052,286800
03/14/1989,5.0664,5.0664,5.0232,5.052,375600
03/15/1989,5.0232,5.0808,5.0088,5.0376,681200
03/16/1989,5.0376,5.0952,5.0376,5.0952,522800
03/17/1989,4.9512,5.0376,4.9512,4.9944,982400
03/20/1989,4.98,4.9944,4.8937,4.9368,441200
03/21/1989,4.9368,4.9656,4.9081,4.9224,521200
03/22/1989,4.9224,4.9656,4.9224,4.9512,417200
03/23/1989,4.98,4.9944,4.9512,4.9656,717200
03/27/1989,4.9368,5.0088,4.9224,4.98,327600
03/28/1989,5.0376,5.0664,5.0088,5.0088,454000
03/29/1989,5.0232,5.0664,5.0232,5.0232,556800
03/30/1989,5.0088,5.052,5.0088,5.0376,640000
03/31/1989,5.052,5.052,4.9944,5.0232,457600
04/03/1989,5.0376,5.1671,5.0376,5.0808,442800
04/04/1989,5.0664,5.0952,5.0232,5.052,383200
04/05/1989,5.052,5.0808,5.0088,5.0088,582800
04/06/1989,5.052,5.0664,5.0088,5.052,356000
04/07/1989,4.9944,5.0376,4.9224,5.0376,750000
04/10/1989,5.0232,5.0232,4.98,5.0088,469600
04/11/1989,4.98,5.0088,4.98,5.0088,176800
04/12/1989,5.0088,5.0232,4.9944,4.9944,290400
04/13/1989,4.9656,5.0088,4.9224,4.9944,469200
04/14/1989,5.0232,5.0952,4.9944,5.0808,516400
04/17/1989,5.0088,5.0808,5.0088,5.0808,429200
04/18/1989,5.052,5.0952,5.0376,5.052,495600
04/19/1989,5.052,5.1527,5.0232,5.0952,840000
04/20/1989,5.1527,5.1527,5.0808,5.124,456000
04/21/1989,5.0952,5.1383,5.052,5.1096,736000
04/24/1989,5.0952,5.1096,5.052,5.1096,354000
04/25/1989,5.124,5.1383,5.0808,5.0808,598400
04/26/1989,5.0808,5.1096,5.052,5.052,312000
04/27/1989,5.052,5.1383,5.052,5.124,908000
04/28/1989,5.1096,5.124,5.0952,5.1096,440800
05/01/1989,5.1096,5.2391,5.0952,5.1815,781600
05/02/1989,5.2103,5.2247,5.124,5.124,401600
05/03/1989,5.124,5.2103,5.124,5.1959,357200
05/04/1989,5.1675,5.2546,5.1675,5.182,400400
05/05/1989,5.1529,5.211,5.1384,5.1675,569600
05/08/1989,5.1384,5.1529,5.0949,5.1239,387200
05/09/1989,5.0949,5.1239,5.0949,5.1094,838800
05/10/1989,5.1094,5.1384,5.0949,5.0949,816000
05/11/1989,5.0949,5.153,5.0949,5.1094,339600
05/12/1989,5.1239,5.211,5.1094,5.211,732000
05/15/1989,5.182,5.2255,5.182,5.2255,1012800
05/16/1989,5.24,5.2546,5.211,5.2546,770800
05/17/1989,5.2546,5.2836,5.2255,5.2255,551200
05/18/1989,5.24,5.2836,5.2255,5.2546,758400
05/19/1989,5.2255,5.3271,5.2255,5.2836,751200
05/22/1989,5.2981,5.3271,5.24,5.3126,1262400
05/23/1989,5.2981,5.3271,5.2255,5.24,684000
05/24/1989,5.211,5.2691,5.1965,5.1965,611200
05/25/1989,5.1965,5.2691,5.1965,5.2546,877600
05/26/1989,5.2836,5.2981,5.2546,5.2546,386800
05/30/1989,5.2546,5.2981,5.2255,5.2255,458400
05/31/1989,5.2255,5.2981,5.2255,5.2546,453600
06/01/1989,5.2546,5.2836,5.2255,5.24,767200
06/02/1989,5.2255,5.2981,5.2255,5.2836,1208400
06/05/1989,5.2836,5.2836,5.182,5.182,339200
06/06/1989,5.211,5.3417,5.211,5.2981,764000
06/07/1989,5.2836,5.3126,5.2255,5.2691,401600
06/08/1989,5.2546,5.2691,5.2255,5.2546,530000
06/09/1989,5.2255,5.2691,5.2255,5.2546,1063600
06/12/1989,5.2546,5.2691,5.2255,5.2691,237600
06/13/1989,5.24,5.2691,5.2255,5.2255,330000
06/14/1989,5.24,5.2546,5.1965,5.1965,508400
06/15/1989,5.1965,5.2255,5.1384,5.182,606800
06/16/1989,5.1239,5.1965,5.1239,5.1965,1280800
06/19/1989,5.1675,5.2255,5.153,5.2255,360000
06/20/1989,5.1965,5.2255,5.1965,5.211,528800
06/21/1989,5.1965,5.211,5.182,5.1965,1482400
06/22/1989,5.182,5.3271,5.182,5.3271,1332400
06/23/1989,5.2981,5.3126,5.2836,5.2836,487200
06/26/1989,5.2691,5.2981,5.24,5.24,408000
06/27/1989,5.2546,5.2981,5.2255,5.24,472400
06/28/1989,5.211,5.2691,5.182,5.2255,1482400
06/29/1989,5.1965,5.2255,5.0949,5.1094,566400
06/30/1989,5.1094,5.1529,5.0513,5.1239,580400
07/03/1989,5.0949,5.1384,5.0659,5.1239,531200
07/05/1989,5.0949,5.1094,5.0513,5.0659,1040800
07/06/1989,5.0368,5.0949,5.0223,5.0659,768400
07/07/1989,5.0659,5.1239,5.0659,5.0949,616800
07/10/1989,5.0949,5.1384,5.0949,5.0949,514000
07/11/1989,5.1094,5.1384,5.0949,5.1384,1248400
07/12/1989,5.1675,5.1965,5.1384,5.1965,842000
07/13/1989,5.153,5.1675,5.0949,5.1384,471200
07/14/1989,5.1675,5.1965,5.1384,5.1965,1411200
07/17/1989,5.211,5.211,5.1384,5.1384,292000
07/18/1989,5.1384,5.1384,5.0804,5.0804,576800
07/19/1989,5.0804,5.1094,5.0659,5.1094,282800
07/20/1989,5.0804,5.0949,4.9933,5.0223,984000
07/21/1989,5.0078,5.1384,4.9788,5.1384,798800
07/24/1989,5.0949,5.153,5.0659,5.1384,786400
07/25/1989,5.1675,5.24,5.1675,5.211,1398400
07/26/1989,5.1965,5.24,5.182,5.2255,673200
07/27/1989,5.2255,5.2546,5.1965,5.2255,381200
07/28/1989,5.2255,5.2546,5.1965,5.2255,406000
07/31/1989,5.211,5.2546,5.1965,5.1965,544000
08/01/1989,5.2255,5.2691,5.182,5.211,1108400
08/02/1989,5.182,5.2546,5.182,5.2255,1530400
08/03/1989,5.2255,5.2546,5.1965,5.2255,421600
08/04/1989,5.2408,5.2408,5.1822,5.2115,693600
08/07/1989,5.2115,5.2408,5.1968,5.2261,865200
08/08/1989,5.2115,5.27,5.2115,5.2261,761600
08/09/1989,5.2408,5.2554,5.1529,5.1676,924000
08/10/1989,5.1383,5.2554,5.1236,5.2408,693600
08/11/1989,5.27,5.2847,5.1676,5.1676,660000
08/14/1989,5.1676,5.2115,5.0651,5.0944,956400
08/15/1989,5.109,5.1236,5.0504,5.0651,634800
08/16/1989,5.0797,5.109,5.0651,5.0797,416000
08/17/1989,5.0797,5.0797,4.9919,5.0065,442400
08/18/1989,5.0212,5.0504,4.9919,5.0358,351600
08/21/1989,5.0358,5.0504,4.8894,4.8894,463200
08/22/1989,4.9041,4.9626,4.8894,4.8894,778400
08/23/1989,4.9187,4.9333,4.8309,4.9041,509600
08/24/1989,4.9333,5.0212,4.8894,5.0065,1604400
08/25/1989,5.0065,5.0797,4.948,4.9772,1231600
08/28/1989,4.948,5.0358,4.948,5.0358,670000
08/29/1989,5.0358,5.0651,4.9919,5.0212,628000
08/30/1989,5.0212,5.1236,5.0212,5.0797,717600
08/31/1989,5.0797,5.1676,5.0797,5.1529,681200
09/01/1989,5.1676,5.2554,5.1529,5.2115,598400
09/05/1989,5.2408,5.2847,5.1968,5.1968,1121600
09/06/1989,5.2115,5.2408,5.1529,5.2115,624400
09/07/1989,5.1822,5.2261,5.1676,5.1676,592400
09/08/1989,5.1822,5.1968,5.1529,5.1676,1006400
09/11/1989,5.1822,5.1968,5.1676,5.1822,657200
09/12/1989,5.1822,5.2115,5.1676,5.1822,318400
09/13/1989,5.2115,5.2261,5.1822,5.1968,738800
09/14/1989,5.1968,5.1968,5.1676,5.1822,634400
09/15/1989,5.1822,5.2261,5.1529,5.1968,1233200
09/18/1989,5.1676,5.2261,5.109,5.2261,704400
09/19/1989,5.2115,5.3286,5.2115,5.3286,981600
09/20/1989,5.3286,5.3286,5.2408,5.2408,361200
09/21/1989,5.2554,5.2554,5.1968,5.1968,382800
09/22/1989,5.1676,5.1822,5.1383,5.1676,659200
09/25/1989,5.1968,5.1968,5.1529,5.1529,508800
09/26/1989,5.1236,5.1383,5.0504,5.0504,555600
09/27/1989,5.0504,5.0944,5.0212,5.0651,324800
09/28/1989,5.0651,5.0797,5.0065,5.0358,985200
09/29/1989,5.0358,5.0504,4.9773,5.0212,571600
10/02/1989,4.9919,5.0065,4.9187,4.948,673200
10/03/1989,4.9626,4.9919,4.8748,4.9333,1006000
10/04/1989,4.9773,5.0358,4.9626,5.0065,474800
10/05/1989,4.9626,5.0212,4.9333,4.9919,597600
10/06/1989,4.9919,5.0212,4.948,4.9919,378400
10/09/1989,4.9773,5.0944,4.9626,5.0651,563200
10/10/1989,5.109,5.1383,5.0651,5.1236,435600
10/11/1989,5.1236,5.1676,5.0944,5.109,501200
10/12/1989,5.0944,5.0944,5.0358,5.0504,467200
10/13/1989,5.0358,5.0358,4.7723,4.7723,614000
10/16/1989,4.5674,4.8894,4.5527,4.7137,1891600
10/17/1989,4.7137,4.8601,4.6845,4.8455,1141200
10/18/1989,4.8162,4.948,4.8016,4.8455,360000
10/19/1989,4.8748,4.8894,4.8016,4.8016,592000
10/20/1989,4.7723,4.8016,4.6552,4.6698,1117600
10/23/1989,4.6991,4.743,4.6552,4.7137,1474000
10/24/1989,4.7137,4.8016,4.5674,4.7137,621600
10/25/1989,4.6845,4.7284,4.6259,4.6552,458000
10/26/1989,4.6406,4.6698,4.6259,4.6259,716000
10/27/1989,4.6259,4.6698,4.6113,4.6552,962800
10/30/1989,4.6259,4.6698,4.5234,4.5381,627200
10/31/1989,4.5527,4.6259,4.5234,4.6113,1016000
11/01/1989,4.6113,4.6406,4.582,4.6406,886400
11/02/1989,4.5966,4.6113,4.5527,4.5966,1091200
11/03/1989,4.5674,4.582,4.5234,4.5674,662400
11/06/1989,4.494,4.5384,4.4497,4.5088,1181200
11/07/1989,4.4349,4.4349,4.3906,4.3906,808400
11/08/1989,4.4053,4.4497,4.4053,4.4497,1152000
11/09/1989,4.4793,4.4793,4.4349,4.4497,788400
11/10/1989,4.4201,4.4497,4.3906,4.4349,959600
11/13/1989,4.4497,4.4793,4.4349,4.4349,598400
11/14/1989,4.4349,4.4793,4.3758,4.3758,314000
11/15/1989,4.4053,4.4793,4.4053,4.4793,589600
11/16/1989,4.494,4.5532,4.4497,4.5384,777600
11/17/1989,4.5236,4.568,4.5088,4.568,644000
11/20/1989,4.5827,4.5827,4.494,4.5088,426800
11/21/1989,4.5088,4.5384,4.4645,4.5088,933200
11/22/1989,4.5088,4.5236,4.4645,4.5088,667600
11/24/1989,4.5236,4.568,4.494,4.5088,444400
11/27/1989,4.5088,4.6123,4.494,4.5975,1072400
11/28/1989,4.6271,4.6862,4.5975,4.6714,354800
11/29/1989,4.6419,4.701,4.6123,4.6862,414000
11/30/1989,4.6566,4.701,4.6123,4.6714,709200
12/01/1989,4.6862,4.7158,4.6566,4.7158,1048400
12/04/1989,4.701,4.8193,4.6566,4.8193,512800
12/05/1989,4.7897,4.8488,4.7749,4.7897,511200
12/06/1989,4.7601,4.834,4.7601,4.8045,416000
12/07/1989,4.7749,4.8193,4.6123,4.7158,472400
12/08/1989,4.6862,4.7453,4.6862,4.7158,1081200
12/11/1989,4.701,4.7306,4.6714,4.7158,283600
12/12/1989,4.701,4.7601,4.6714,4.7601,966400
12/13/1989,4.7601,4.7897,4.6862,4.7158,412000
12/14/1989,4.701,4.7158,4.6862,4.6862,383200
12/15/1989,4.6862,4.6862,4.5827,4.6862,1191600
12/18/1989,4.6566,4.701,4.5236,4.5827,738400
12/19/1989,4.5679,4.6419,4.5679,4.5827,574000
12/20/1989,4.6123,4.6714,4.6123,4.6419,301200
12/21/1989,4.6123,4.7306,4.6123,4.7306,482400
12/22/1989,4.7306,4.7453,4.6419,4.701,226400
12/26/1989,4.7158,4.8488,4.6862,4.7749,582400
12/27/1989,4.7749,4.8193,4.7453,4.8193,651200
12/28/1989,4.8193,4.834,4.6862,4.701,341600
12/29/1989,4.7306,4.7453,4.701,4.701,364000
01/02/1990,4.7306,4.8193,4.6271,4.7749,791600
01/03/1990,4.7453,4.9375,4.7453,4.908,650800
01/04/1990,4.908,4.9375,4.7749,4.8636,493200
01/05/1990,4.8193,4.8636,4.7749,4.8045,1561200
01/08/1990,4.7749,4.8784,4.7453,4.8784,863200
01/09/1990,4.8784,4.8784,4.8193,4.8488,780400
01/10/1990,4.8193,4.834,4.7158,4.8045,640000
01/11/1990,4.8045,4.8193,4.7601,4.7897,662400
01/12/1990,4.7306,4.7897,4.6862,4.7158,707600
01/15/1990,4.701,4.7306,4.701,4.7306,470800
01/16/1990,4.701,4.7897,4.701,4.7897,604800
01/17/1990,4.7601,4.7749,4.7158,4.7306,423200
01/18/1990,4.7158,4.834,4.7158,4.8045,468800
01/19/1990,4.8045,4.8045,4.6862,4.701,1023200
01/22/1990,4.7158,4.7453,4.5532,4.5532,488800
01/23/1990,4.5679,4.7158,4.5679,4.6566,528400
01/24/1990,4.6271,4.7749,4.6123,4.7306,529200
01/25/1990,4.7306,4.7601,4.6714,4.6714,532000
01/26/1990,4.701,4.7158,4.6123,4.6714,682800
01/29/1990,4.6714,4.7749,4.6566,4.6862,727200
01/30/1990,4.6862,4.7158,4.6419,4.6714,592000
01/31/1990,4.701,4.7158,4.6862,4.701,305200
02/01/1990,4.701,4.7158,4.6419,4.6419,428000
02/02/1990,4.6566,4.701,4.6271,4.6714,263200
02/05/1990,4.6714,4.701,4.6566,4.6714,630400
02/06/1990,4.6419,4.701,4.5975,4.701,341600
02/07/1990,4.701,4.7158,4.6714,4.6862,580400
02/08/1990,4.701,4.7158,4.6714,4.6714,654000
02/09/1990,4.701,4.7158,4.6714,4.7158,345600
02/12/1990,4.701,4.7158,4.6714,4.6714,211200
02/13/1990,4.6571,4.7168,4.6571,4.7168,425600
02/14/1990,4.7467,4.7616,4.7317,4.7616,256000
02/15/1990,4.7616,4.7765,4.7168,4.7317,230000
02/16/1990,4.7467,4.7467,4.7168,4.7317,677200
02/20/1990,4.7168,4.7168,4.6571,4.6571,602000
02/21/1990,4.6571,4.7317,4.6422,4.672,722400
02/22/1990,4.687,4.7019,4.6123,4.6123,537200
02/23/1990,4.6422,4.672,4.6272,4.6571,732400
02/26/1990,4.687,4.7019,4.6123,4.672,976000
02/27/1990,4.672,4.7467,4.672,4.7317,908000
02/28/1990,4.7317,4.7765,4.7317,4.7765,690400
03/01/1990,4.7467,4.7616,4.7019,4.7616,849200
03/02/1990,4.7467,4.8959,4.7317,4.881,768000
03/05/1990,4.8661,4.9556,4.8362,4.8661,408400
03/06/1990,4.8661,4.9258,4.8661,4.881,422800
03/07/1990,4.8661,4.9556,4.8661,4.9109,418000
03/08/1990,4.9109,4.9556,4.9109,4.9407,396400
03/09/1990,4.9258,4.9407,4.8213,4.8362,237200
03/12/1990,4.8362,4.8959,4.8362,4.881,354000
03/13/1990,4.8511,4.9556,4.8362,4.8661,525600
03/14/1990,4.8511,4.9407,4.8511,4.9258,226400
03/15/1990,4.8959,4.9407,4.881,4.9407,513200
03/16/1990,4.9855,5.0004,4.9556,4.9855,852400
03/19/1990,4.9706,5.0153,4.9407,5.0153,419600
03/20/1990,5.0004,5.0452,4.9706,5.0153,649600
03/21/1990,5.0153,5.075,4.9855,5.0452,608400
03/22/1990,5.0452,5.0601,5.0153,5.0452,686000
03/23/1990,5.0452,5.075,5.0153,5.0452,383600
03/26/1990,5.0601,5.075,5.0601,5.0601,322400
03/27/1990,5.0303,5.1348,5.0303,5.0303,536800
03/28/1990,5.1497,5.1497,5.075,5.075,157600
03/29/1990,5.075,5.09,5.0153,5.0601,315200
03/30/1990,5.075,5.1198,5.0601,5.1049,261600
04/02/1990,5.0601,5.0601,5.0004,5.0601,426400
04/03/1990,5.09,5.1348,5.0601,5.1348,364000
04/04/1990,5.1049,5.1945,5.1049,5.1795,577600
04/05/1990,5.1945,5.1945,5.075,5.1348,589200
04/06/1990,5.1049,5.1348,5.0452,5.09,408000
04/09/1990,5.1049,5.1049,5.0601,5.075,296400
04/10/1990,5.075,5.09,5.0601,5.09,291600
04/11/1990,5.075,5.1348,5.075,5.1348,211200
04/12/1990,5.1198,5.1497,5.1049,5.1198,442400
04/16/1990,5.1348,5.1646,5.1049,5.1049,336000
04/17/1990,5.075,5.1348,5.0452,5.1198,260000
04/18/1990,5.1348,5.1795,5.1348,5.1795,209200
04/19/1990,5.1646,5.3437,5.1198,5.3288,1259200
04/20/1990,5.3437,5.5228,5.3437,5.4184,1464800
04/23/1990,5.3885,5.4333,5.2691,5.2691,863200
04/24/1990,5.2691,5.4034,5.2691,5.3736,700000
04/25/1990,5.3736,5.4333,5.3736,5.3885,563600
04/26/1990,5.4034,5.493,5.3885,5.493,467600
04/27/1990,5.493,5.493,5.4184,5.4333,419200
04/30/1990,5.3736,5.3885,5.3139,5.3437,686000
05/01/1990,5.3437,5.3885,5.2989,5.3885,733200
05/02/1990,5.3885,5.4034,5.284,5.3139,952000
05/03/1990,5.3139,5.4034,5.3139,5.3885,1052400
05/04/1990,5.3487,5.4693,5.3487,5.4693,731600
05/07/1990,5.4391,5.5446,5.4391,5.5295,1931600
05/08/1990,5.4994,5.5295,5.4241,5.4391,1156000
05/09/1990,5.4693,5.5597,5.4693,5.5295,622000
05/10/1990,5.5295,5.5898,5.4994,5.4994,830800
05/11/1990,5.5295,5.6049,5.5295,5.5747,1064000
05/14/1990,5.5898,5.6953,5.5597,5.5597,1062800
05/15/1990,5.5446,5.635,5.5295,5.635,609600
05/16/1990,5.6501,5.7103,5.5747,5.7103,656400
05/17/1990,5.7103,5.7555,5.6802,5.7103,724800
05/18/1990,5.6802,5.7555,5.6802,5.7555,454800
05/21/1990,5.7254,5.8459,5.6953,5.8158,902800
05/22/1990,5.8158,5.9062,5.8007,5.8459,732000
05/23/1990,5.8459,5.8911,5.8309,5.8459,385600
05/24/1990,5.8309,5.861,5.8007,5.8309,226000
05/25/1990,5.861,5.9062,5.8309,5.861,314400
05/29/1990,5.8459,5.9665,5.8459,5.9665,158400
05/30/1990,5.9665,6.0117,5.9665,5.9966,497200
05/31/1990,5.9665,5.9966,5.9363,5.9966,395200
06/01/1990,6.0267,6.1171,6.0117,6.0418,550800
06/04/1990,6.0117,6.1322,5.9665,6.1171,391200
06/05/1990,6.1021,6.1171,5.9966,6.0267,506800
06/06/1990,5.9665,5.9815,5.9213,5.9665,696800
06/07/1990,5.9665,5.9815,5.7857,5.7857,719600
06/08/1990,5.8007,5.8158,5.6651,5.6651,1714800
06/11/1990,5.6802,5.8459,5.6802,5.8459,444800
06/12/1990,5.8158,5.861,5.7555,5.8459,530000
06/13/1990,5.8459,5.8459,5.7405,5.7405,254000
06/14/1990,5.7555,5.7706,5.7103,5.7706,195600
06/15/1990,5.6802,5.7103,5.6651,5.6651,672000
06/18/1990,5.6802,5.7103,5.6501,5.6651,354000
06/19/1990,5.6651,5.7857,5.6651,5.7857,454800
06/20/1990,5.8158,5.8158,5.6953,5.7103,392000
06/21/1990,5.7103,5.7555,5.6802,5.7254,456000
06/22/1990,5.7103,5.8158,5.7103,5.7405,947200
06/25/1990,5.7555,5.7857,5.7103,5.7706,474400
06/26/1990,5.8158,5.9815,5.8158,5.9363,765600
06/27/1990,5.7555,5.7555,5.4843,5.5898,2597600
06/28/1990,5.6199,5.7555,5.6049,5.7555,1344800
06/29/1990,5.7254,5.8459,5.7254,5.7857,2169600
07/02/1990,5.7555,5.8309,5.7405,5.8158,419200
07/03/1990,5.8309,5.8761,5.7706,5.8761,668000
07/05/1990,5.8761,5.8761,5.7857,5.8309,941200
07/06/1990,5.8007,5.8007,5.7405,5.7405,328400
07/09/1990,5.7555,5.8158,5.7254,5.7706,722400
07/10/1990,5.7405,5.8007,5.7405,5.7555,738400
07/11/1990,5.7555,5.861,5.7555,5.8459,1086400
07/12/1990,5.8158,5.8761,5.8007,5.8761,436400
07/13/1990,5.8911,6.0418,5.8911,6.0267,960800
07/16/1990,5.9966,5.9966,5.9213,5.9966,465600
07/17/1990,5.9966,5.9966,5.9514,5.9665,518800
07/18/1990,5.9363,5.9514,5.8459,5.9514,638400
07/19/1990,5.9363,6.1623,5.8459,6.1623,1089200
07/20/1990,6.1925,6.6595,6.1774,6.5089,2156400
07/23/1990,6.4787,6.4787,6.2678,6.4034,1291200
07/24/1990,6.3733,6.4335,6.2979,6.3883,758000
07/25/1990,6.3582,6.4185,6.2829,6.3431,245200
07/26/1990,6.313,6.3431,6.2377,6.2678,606800
07/27/1990,6.2377,6.3281,6.1322,6.1623,791200
07/30/1990,6.1473,6.3883,6.1171,6.3883,505600
07/31/1990,6.4185,6.4486,6.3431,6.4335,608400
08/01/1990,6.4486,6.4938,6.3883,6.4034,324400
08/02/1990,6.3281,6.4335,6.313,6.3431,790400
08/03/1990,6.2829,6.2829,5.9363,6.0267,2496000
08/06/1990,5.8955,5.9562,5.7435,5.9562,966400
08/07/1990,6.017,6.0474,5.9562,6.017,1298000
08/08/1990,6.0474,6.1386,6.0474,6.0778,1368400
08/09/1990,6.0778,6.169,6.0626,6.1386,1104000
08/10/1990,6.169,6.1993,6.0474,6.0474,676800
08/13/1990,6.0474,6.0474,5.8651,5.941,850000
08/14/1990,5.9714,5.9714,5.8955,5.9107,789200
08/15/1990,5.941,5.9562,5.8347,5.8347,708400
08/16/1990,5.8043,5.8195,5.622,5.6523,978800
08/17/1990,5.5612,5.622,5.4396,5.6068,816800
08/20/1990,5.6068,5.7739,5.5612,5.6979,673600
08/21/1990,5.622,5.6827,5.5156,5.5612,595600
08/22/1990,5.622,5.622,5.4396,5.5004,822800
08/23/1990,5.3485,5.3788,5.3333,5.3636,804000
08/24/1990,5.4396,5.47,5.394,5.4548,444800
08/27/1990,5.622,5.6827,5.546,5.6372,301200
08/28/1990,5.6372,5.7131,5.5916,5.6675,325200
08/29/1990,5.6827,5.6827,5.5916,5.622,467200
08/30/1990,5.5612,5.5916,5.47,5.4852,684400
08/31/1990,5.47,5.5764,5.4396,5.5764,359600
09/04/1990,5.5916,5.5916,5.4852,5.546,565600
09/05/1990,5.5764,5.5764,5.5156,5.5308,239200
09/06/1990,5.5612,5.5612,5.5004,5.5308,517200
09/07/1990,5.47,5.5764,5.4548,5.5156,344800
09/10/1990,5.5764,5.5916,5.5004,5.5156,481600
09/11/1990,5.4852,5.5004,5.4092,5.4244,603200
09/12/1990,5.4244,5.4548,5.3788,5.4548,537600
09/13/1990,5.4396,5.4396,5.394,5.4092,511200
09/14/1990,5.394,5.4092,5.2877,5.3181,459600
09/17/1990,5.1053,5.2269,5.0598,5.2117,529600
09/18/1990,5.2117,5.2117,5.1205,5.1965,526000
09/19/1990,5.1965,5.2117,5.1661,5.1965,360000
09/20/1990,5.1813,5.1813,5.075,5.1053,595200
09/21/1990,5.1965,5.1965,5.0901,5.1357,1078400
09/24/1990,5.1053,5.1509,5.0901,5.1357,686400
09/25/1990,5.1661,5.3636,5.1661,5.3485,522400
09/26/1990,5.3485,5.3788,5.2269,5.2877,654000
09/27/1990,5.3788,5.394,5.2725,5.3029,700800
09/28/1990,5.2877,5.4852,5.2573,5.3181,520400
10/01/1990,5.4396,5.622,5.4092,5.5764,426400
10/02/1990,5.622,5.7283,5.622,5.6372,700000
10/03/1990,5.622,5.622,5.4852,5.546,625600
10/04/1990,5.546,5.5764,5.4852,5.5308,283600
10/05/1990,5.4092,5.5004,5.3181,5.4092,559200
10/08/1990,5.4396,5.47,5.3485,5.3485,359200
10/09/1990,5.3485,5.3485,5.1357,5.1509,960400
10/10/1990,5.1509,5.1509,4.8774,4.9078,925200
10/11/1990,4.9382,4.9534,4.7407,4.7863,1204800
10/12/1990,4.8166,4.8318,4.6495,4.7103,1556800
10/15/1990,4.6799,4.7407,4.6343,4.6647,934000
10/16/1990,4.6647,4.6799,4.1937,4.2089,2130400
10/17/1990,4.2393,4.4216,4.2393,4.3304,1859600
10/18/1990,4.3608,4.5431,4.3608,4.4672,784800
10/19/1990,4.4976,4.7559,4.4976,4.6951,820000
10/22/1990,4.6647,4.6951,4.528,4.528,684400
10/23/1990,4.4672,4.5887,4.4216,4.452,593200
10/24/1990,4.4824,4.5887,4.452,4.5735,671600
10/25/1990,4.6039,4.6191,4.528,4.5583,485200
10/26/1990,4.528,4.6495,4.5128,4.6495,534000
10/29/1990,4.6191,4.6495,4.5583,4.5735,403600
10/30/1990,4.5735,4.6191,4.5583,4.6039,676000
10/31/1990,4.6495,4.6647,4.6039,4.6039,258400
11/01/1990,4.6343,4.7103,4.6191,4.7103,635600
11/02/1990,4.6951,4.7407,4.6951,4.7407,1046800
11/05/1990,4.7769,4.8537,4.7462,4.8537,302000
11/06/1990,4.8076,4.823,4.7923,4.7923,310400
11/07/1990,4.7616,4.823,4.7462,4.7616,348800
11/08/1990,4.7308,4.7923,4.7155,4.7769,261600
11/09/1990,4.7923,4.9766,4.7923,4.9152,394800
11/12/1990,4.8537,4.9459,4.8537,4.8844,277200
11/13/1990,4.8998,4.8998,4.7616,4.8076,351200
11/14/1990,4.8384,4.9612,4.8384,4.9459,481200
11/15/1990,4.9152,4.9766,4.823,4.823,606400
11/16/1990,4.8537,4.9459,4.8537,4.9305,634000
11/19/1990,5.0995,5.207,4.992,5.207,672800
11/20/1990,5.2224,5.3145,5.207,5.207,880400
11/21/1990,5.207,5.2531,5.0073,5.207,699600
11/23/1990,5.1763,5.207,5.1148,5.1148,114800
11/26/1990,5.038,5.038,4.9766,5.0073,474000
11/27/1990,5.038,5.038,4.9766,4.992,399200
11/28/1990,4.9766,5.038,4.9459,5.038,539600
11/29/1990,5.1148,5.1148,5.038,5.0688,239600
11/30/1990,5.0841,5.207,5.0073,5.1916,801600
12/03/1990,5.2224,5.2684,5.1916,5.2224,551200
12/04/1990,5.1916,5.2377,5.1148,5.2377,517200
12/05/1990,5.2224,5.2838,5.1609,5.2224,549200
12/06/1990,5.3145,5.4681,5.2838,5.4374,801600
12/07/1990,5.4067,5.5142,5.3606,5.376,518800
12/10/1990,5.4067,5.5296,5.376,5.5296,154000
12/11/1990,5.4988,5.4988,5.376,5.4374,724400
12/12/1990,5.4067,5.4681,5.376,5.4681,732800
12/13/1990,5.4681,5.4835,5.4374,5.4528,427200
12/14/1990,5.422,5.4374,5.3452,5.3913,401600
12/17/1990,5.376,5.376,5.3299,5.3606,285600
12/18/1990,5.376,5.4835,5.3299,5.4528,633200
12/19/1990,5.4681,5.4835,5.3606,5.4067,1051200
12/20/1990,5.4067,5.5449,5.376,5.5449,870400
12/21/1990,5.7446,5.7446,5.6524,5.7292,738400
12/24/1990,5.6985,5.6985,5.6524,5.6832,97200
12/26/1990,5.6678,5.7446,5.6371,5.7292,443600
12/27/1990,5.7446,5.8368,5.7139,5.7292,246400
12/28/1990,5.76,5.7753,5.6985,5.7753,343600
12/31/1990,5.8214,5.8214,5.7139,5.7753,163600
01/02/1991,5.7907,5.7907,5.5756,5.5756,1206400
01/03/1991,5.5296,5.5603,5.4374,5.4835,1622400
01/04/1991,5.4835,5.4835,5.3913,5.4374,460000
01/07/1991,5.376,5.3913,5.2992,5.2992,392000
01/08/1991,5.3145,5.3145,5.1916,5.2838,383200
01/09/1991,5.3145,5.3452,5.0995,5.1916,973200
01/10/1991,5.1916,5.3452,5.1916,5.3145,283600
01/11/1991,5.3145,5.422,5.3145,5.3913,297600
01/14/1991,5.3606,5.3606,5.1763,5.1763,368400
01/15/1991,5.207,5.2224,5.1302,5.2224,314800
01/16/1991,5.1916,5.2992,5.1609,5.2531,300000
01/17/1991,5.4681,5.5142,5.4067,5.422,791600
01/18/1991,5.4528,5.591,5.422,5.591,512400
01/21/1991,5.5296,5.6064,5.5296,5.5449,369600
01/22/1991,5.5449,5.591,5.4988,5.5603,278000
01/23/1991,5.5449,5.6371,5.5449,5.591,369200
01/24/1991,5.6217,5.806,5.6217,5.7907,425200
01/25/1991,5.7753,5.8368,5.591,5.6371,674800
01/28/1991,5.6217,5.7139,5.5603,5.6678,700800
01/29/1991,5.6832,5.7446,5.6678,5.7446,411600
01/30/1991,5.7292,5.8368,5.7292,5.8214,313200
01/31/1991,5.806,6.0825,5.7907,6.0672,912800
02/01/1991,6.0979,6.1747,5.9904,6.1132,1169200
02/04/1991,6.0518,6.1747,5.9904,6.1747,750800
02/05/1991,6.0825,6.3283,6.0211,6.2668,1313600
02/06/1991,6.2361,6.4665,6.2054,6.4665,2293600
02/07/1991,6.4051,6.5433,6.2208,6.3283,1114400
02/08/1991,6.2361,6.4051,6.2208,6.359,514800
02/11/1991,6.3283,6.574,6.3283,6.574,1012800
02/12/1991,6.4712,6.6106,6.4712,6.6106,795600
02/13/1991,6.5796,6.6106,6.5022,6.5796,606400
02/14/1991,6.6106,6.6261,6.3783,6.4403,550400
02/15/1991,6.5022,6.5641,6.4093,6.5332,772800
02/19/1991,6.5641,6.7035,6.5332,6.7035,587600
02/20/1991,6.7035,6.7499,6.688,6.7499,645200
02/21/1991,6.7189,6.7499,6.5332,6.5796,384800
02/22/1991,6.5332,6.657,6.5022,6.5332,604400
02/25/1991,6.5641,6.5796,6.4712,6.4712,439200
02/26/1991,6.4403,6.4867,6.3474,6.4558,343200
02/27/1991,6.4867,6.5796,6.4558,6.5177,740800
02/28/1991,6.5332,6.5796,6.4712,6.5641,449200
03/01/1991,6.5022,6.5641,6.4712,6.5486,369200
03/04/1991,6.5486,6.5486,6.2545,6.2545,425200
03/05/1991,6.27,6.6261,6.27,6.5796,512800
03/06/1991,6.5796,6.5951,6.4093,6.4712,834400
03/07/1991,6.4403,6.4403,6.3164,6.4093,338800
03/08/1991,6.4403,6.4712,6.3938,6.4248,525600
03/11/1991,6.4248,6.4712,6.4248,6.4248,434400
03/12/1991,6.4558,6.5332,6.4248,6.4248,428400
03/13/1991,6.3938,6.5177,6.3938,6.5177,414800
03/14/1991,6.4093,6.4093,5.9603,6.0997,3656400
03/15/1991,6.1306,6.2235,6.0532,6.2235,1612000
03/18/1991,6.0068,6.0532,5.5733,5.6662,1902000
03/19/1991,5.6352,5.821,5.5888,5.7591,1174800
03/20/1991,5.7901,5.8984,5.7436,5.8829,403200
03/21/1991,5.9449,5.9758,5.821,5.821,598800
03/22/1991,5.8675,5.9139,5.821,5.8984,298400
03/25/1991,5.9603,6.0068,5.9449,5.9913,232800
03/26/1991,5.9139,6.0687,5.9139,6.0687,303600
03/27/1991,6.1306,6.1926,6.0842,6.0997,697600
03/28/1991,6.0997,6.1152,6.0223,6.0532,262400
04/01/1991,6.0223,6.0532,5.9913,6.0378,464000
04/02/1991,6.0687,6.0997,6.0378,6.0687,627600
04/03/1991,6.0687,6.1306,6.0378,6.0378,700000
04/04/1991,6.0068,6.0687,5.9758,6.0223,374000
04/05/1991,5.9913,6.0378,5.8984,5.9913,542400
04/08/1991,6.0068,6.0068,5.8829,5.9758,334800
04/09/1991,5.9913,6.0223,5.8365,5.852,476400
04/10/1991,5.8829,5.8984,5.821,5.852,333200
04/11/1991,5.8829,5.9139,5.821,5.821,470800
04/12/1991,5.821,5.852,5.7901,5.821,400000
04/15/1991,5.852,5.9294,5.7591,5.8984,568800
04/16/1991,5.8984,6.0068,5.8675,5.9913,423600
04/17/1991,5.9603,6.0378,5.9139,5.9913,671200
04/18/1991,6.0223,6.0687,5.9139,5.9139,689600
04/19/1991,5.8984,5.9758,5.8984,5.9294,916800
04/22/1991,5.9294,5.9449,5.8829,5.8984,325200
04/23/1991,5.852,5.8829,5.821,5.852,755200
04/24/1991,5.8675,5.9139,5.8365,5.8984,578000
04/25/1991,5.9449,5.9758,5.8829,5.9449,660000
04/26/1991,5.9758,6.0223,5.9139,6.0223,304400
04/29/1991,5.9913,6.0687,5.8984,5.8984,464000
04/30/1991,5.8829,5.9758,5.821,5.8829,733200
05/01/1991,5.9294,5.9758,5.9294,5.9603,822000
05/02/1991,5.9913,6.0687,5.9449,6.0068,975200
05/03/1991,6.0223,6.0223,5.9758,6.0068,680800
05/06/1991,6.0124,6.028,5.9499,5.9968,560800
05/07/1991,5.9656,5.9656,5.8719,5.8719,613600
05/08/1991,5.8719,5.8719,5.8094,5.8094,1042800
05/09/1991,5.8094,5.9343,5.8094,5.8562,768000
05/10/1991,5.8719,5.8719,5.8094,5.825,570800
05/13/1991,5.8406,5.8719,5.7782,5.7938,477200
05/14/1991,5.8094,5.8562,5.7782,5.8094,648800
05/15/1991,5.8094,5.8406,5.7469,5.7469,912800
05/16/1991,5.7157,5.8094,5.7157,5.8094,445600
05/17/1991,5.8094,5.9031,5.7938,5.8562,813600
05/20/1991,5.8875,5.9031,5.7938,5.8094,250000
05/21/1991,5.7938,5.8719,5.7782,5.8719,490800
05/22/1991,5.8406,5.8562,5.7469,5.7782,716400
05/23/1991,5.8094,5.8406,5.6688,5.7313,516000
05/24/1991,5.7313,5.8406,5.7157,5.7782,752400
05/28/1991,5.7782,5.9968,5.7782,5.9968,791200
05/29/1991,6.028,6.231,5.9968,6.1842,777200
05/30/1991,6.2779,6.6527,6.2467,6.6371,1727600
05/31/1991,6.8089,6.8713,6.6995,6.7776,2689200
06/03/1991,6.8401,6.8869,6.6527,6.7776,948400
06/04/1991,6.7152,6.8401,6.6527,6.8089,1294000
06/05/1991,6.7776,6.8401,6.5902,6.6215,1778800
06/06/1991,6.6527,6.7152,6.6371,6.6683,777600
06/07/1991,6.6215,6.6839,6.6058,6.6215,311200
06/10/1991,6.559,6.5902,6.4653,6.5746,430400
06/11/1991,6.6683,6.762,6.6371,6.762,532000
06/12/1991,6.762,6.7776,6.6527,6.6995,814400
06/13/1991,6.6995,6.8401,6.6995,6.8245,2080400
06/14/1991,6.8401,6.965,6.8401,6.965,1980000
06/17/1991,6.9338,7.2149,6.9338,7.0587,804000
06/18/1991,7.121,7.121,6.996,6.996,1647600
06/19/1991,6.965,6.965,6.8557,6.9026,801200
06/20/1991,6.8401,6.9026,6.8245,6.9026,678800
06/21/1991,6.9026,6.9963,6.9026,6.9963,910000
06/24/1991,6.965,6.965,6.8089,6.8557,510800
06/25/1991,6.8557,6.9026,6.7932,6.8401,780800
06/26/1991,6.7464,6.8713,6.7308,6.8401,681200
06/27/1991,6.8401,7.0275,6.8401,7.0275,739600
06/28/1991,6.9963,6.9963,6.8557,6.9182,677600
07/01/1991,6.9182,7.1212,6.8869,7.1056,743600
07/02/1991,7.09,7.137,7.059,7.074,644800
07/03/1991,7.043,7.059,6.996,7.012,749200
07/05/1991,7.012,7.074,7.012,7.027,239200
07/08/1991,7.027,7.09,6.996,7.043,400800
07/09/1991,7.059,7.059,6.996,7.012,477600
07/10/1991,7.027,7.074,6.981,6.981,809200
07/11/1991,6.9806,7.1212,6.965,7.09,1207600
07/12/1991,7.121,7.246,7.059,7.199,848000
07/15/1991,7.231,7.277,7.184,7.246,478400
07/16/1991,7.277,7.402,7.184,7.184,658800
07/17/1991,7.168,7.246,7.09,7.152,533200
07/18/1991,7.152,7.34,7.137,7.324,738000
07/19/1991,7.371,7.418,7.324,7.324,896000
07/22/1991,7.324,7.324,7.215,7.246,990400
07/23/1991,7.184,7.293,7.184,7.262,452800
07/24/1991,7.293,7.293,7.199,7.215,521200
07/25/1991,7.246,7.293,7.074,7.121,299600
07/26/1991,7.059,7.059,7.012,7.027,575200
07/29/1991,7.012,7.059,6.981,7.059,486000
07/30/1991,7.027,7.152,6.996,7.152,390400
07/31/1991,7.121,7.137,7.09,7.106,339200
08/01/1991,7.074,7.168,7.059,7.121,363600
08/02/1991,7.121,7.121,7.09,7.09,741600
08/05/1991,7.074,7.09,7.043,7.09,462800
08/06/1991,7.08,7.206,7.08,7.159,443200
08/07/1991,7.143,7.206,7.096,7.174,362400
08/08/1991,7.19,7.19,7.048,7.08,425600
08/09/1991,7.111,7.127,6.97,6.97,254400
08/12/1991,6.8911,7.017,6.8439,7.017,276800
08/13/1991,7.033,7.064,6.86,6.875,276400
08/14/1991,6.9226,6.9226,6.7338,6.7338,390000
08/15/1991,6.7652,6.8124,6.7652,6.7967,535600
08/16/1991,6.8282,6.8596,6.7023,6.781,328000
08/19/1991,6.6236,6.6551,6.5135,6.5292,849200
08/20/1991,6.5764,6.5922,6.4506,6.482,567600
08/21/1991,6.6394,6.7967,6.5764,6.7967,538400
08/22/1991,6.7652,6.8596,6.7338,6.8596,412000
08/23/1991,7.017,7.221,7.017,7.174,950000
08/26/1991,7.143,7.269,7.048,7.221,452800
08/27/1991,7.221,7.221,7.096,7.143,628800
08/28/1991,7.143,7.159,7.111,7.127,415600
08/29/1991,7.096,7.19,7.048,7.174,498800
08/30/1991,7.174,7.174,7.064,7.127,970800
09/03/1991,7.127,7.174,7.111,7.111,740800
09/04/1991,7.08,7.096,7.064,7.096,316000
09/05/1991,7.08,7.143,7.08,7.096,726800
09/06/1991,7.08,7.143,7.08,7.111,445600
09/09/1991,7.111,7.143,7.08,7.096,108000
09/10/1991,7.096,7.096,6.97,6.97,448000
09/11/1991,6.9855,7.017,6.8754,6.8754,240800
09/12/1991,6.8754,6.9068,6.8596,6.8911,444000
09/13/1991,6.9226,6.9383,6.8754,6.9068,658000
09/16/1991,6.8911,6.9068,6.8439,6.8439,308400
09/17/1991,6.8596,6.9383,6.8596,6.8911,695600
09/18/1991,6.8596,6.8911,6.7967,6.8911,254800
09/19/1991,6.9068,6.9068,6.6866,6.718,717200
09/20/1991,6.7967,6.7967,6.7023,6.7652,1670000
09/23/1991,6.7652,6.7652,6.718,6.7652,797600
09/24/1991,6.7652,6.8124,6.7023,6.8124,582000
09/25/1991,6.7967,6.8596,6.7967,6.8282,385200
09/26/1991,6.8282,6.8911,6.7967,6.8596,316400
09/27/1991,6.8911,6.9383,6.8596,6.9226,623600
09/30/1991,6.9068,6.9226,6.8282,6.9068,427200
10/01/1991,6.9068,6.9226,6.8754,6.9068,467200
10/02/1991,6.9226,6.9383,6.8754,6.8754,370000
10/03/1991,6.8439,6.8439,6.7967,6.8124,305200
10/04/1991,6.7967,6.7967,6.7023,6.7023,256400
10/07/1991,6.6079,6.6708,6.5764,6.6394,548800
10/08/1991,6.6708,6.6708,6.6236,6.6394,340000
10/09/1991,6.6394,6.6394,6.482,6.545,485200
10/10/1991,6.545,6.545,6.4191,6.482,553600
10/11/1991,6.482,6.4978,6.1202,6.1202,1183600
10/14/1991,6.1516,6.4978,6.1516,6.4978,517200
10/15/1991,6.4978,6.4978,6.2932,6.3876,726400
10/16/1991,6.3562,6.4191,6.309,6.4191,448000
10/17/1991,6.4506,6.6551,6.4506,6.6551,480800
10/18/1991,6.7338,6.7652,6.545,6.545,387200
10/21/1991,6.5607,6.5764,6.4191,6.4506,432400
10/22/1991,6.4348,6.4663,6.3876,6.4506,548000
10/23/1991,6.4663,6.5764,6.4191,6.5764,425200
10/24/1991,6.5135,6.5135,6.4348,6.482,474000
10/25/1991,6.4663,6.5292,6.4348,6.4663,297600
10/28/1991,6.4663,6.6551,6.4663,6.6551,148400
10/29/1991,6.6551,6.6551,6.4506,6.5135,514000
10/30/1991,6.5135,6.5135,6.3562,6.3719,985600
10/31/1991,6.3719,6.3719,6.2303,6.2932,2674800
11/01/1991,6.2932,6.3876,6.2618,6.2932,420400
11/04/1991,6.2618,6.2775,6.1831,6.2775,1498800
11/05/1991,6.2407,6.2565,6.0342,6.1454,1777600
11/06/1991,6.1295,6.1613,6.0342,6.0342,1236000
11/07/1991,6.0342,6.2565,6.0342,6.2565,1118400
11/08/1991,6.2883,6.3201,6.2565,6.2724,479200
11/11/1991,6.2565,6.3042,6.2565,6.2724,133600
11/12/1991,6.3836,6.3995,6.3359,6.3518,478400
11/13/1991,6.3201,6.3836,6.2248,6.3042,468000
11/14/1991,6.2883,6.3042,6.193,6.2565,323200
11/15/1991,6.2248,6.2248,6.0342,6.0342,627600
11/18/1991,6.0342,6.193,6.0025,6.066,1368000
11/19/1991,6.0342,6.0342,5.8754,5.8754,1205200
11/20/1991,5.9072,6.0342,5.8754,5.9707,2449200
11/21/1991,5.9548,5.9707,5.8754,5.9548,1588000
11/22/1991,5.9072,5.9548,5.8754,5.8913,613200
11/25/1991,5.8913,5.9707,5.7484,5.7484,959600
11/26/1991,5.7802,5.8119,5.7166,5.8119,1203600
11/27/1991,5.8437,5.8437,5.7802,5.8437,570000
11/29/1991,5.8278,5.8437,5.8278,5.8278,188400
12/02/1991,5.796,5.9072,5.796,5.9072,350000
12/03/1991,5.8913,6.0025,5.8754,5.9866,962400
12/04/1991,5.9866,6.0184,5.8437,5.8437,436800
12/05/1991,5.8437,5.8754,5.7643,5.8119,1270800
12/06/1991,5.8119,5.8754,5.796,5.8754,587200
12/09/1991,5.8754,5.8754,5.8278,5.8437,263600
12/10/1991,5.8437,5.9231,5.8119,5.8119,1017600
12/11/1991,5.8119,5.8437,5.7325,5.8278,1056400
12/12/1991,5.8278,5.8754,5.8119,5.8278,748400
12/13/1991,5.8913,5.8913,5.8278,5.8596,696000
12/16/1991,5.8596,5.9072,5.8437,5.8437,722400
12/17/1991,5.8437,5.9231,5.8437,5.8913,984400
12/18/1991,5.8913,5.8913,5.8437,5.8437,929600
12/19/1991,5.8119,5.8119,5.7325,5.7802,937200
12/20/1991,5.8754,5.9707,5.8119,5.9548,1074800
12/23/1991,5.9866,6.1613,5.9231,6.1136,1210400
12/24/1991,6.1136,6.2248,6.0978,6.1613,739200
12/26/1991,6.193,6.2407,6.1613,6.1771,660800
12/27/1991,6.1613,6.2248,6.1295,6.2248,917200
12/30/1991,6.2248,6.3677,6.2089,6.3518,848000
12/31/1991,6.3836,6.4471,6.3677,6.4153,574800
01/02/1992,6.3995,6.4471,6.3518,6.4471,813200
01/03/1992,6.4471,6.4789,6.3995,6.463,738400
01/06/1992,6.4789,6.5583,6.4789,6.5583,1759600
01/07/1992,6.5741,6.9076,6.5741,6.7647,1173600
01/08/1992,6.7012,6.86,6.6694,6.86,1009200
01/09/1992,6.86,6.86,6.7806,6.8441,568000
01/10/1992,6.7806,6.8282,6.6535,6.7806,1143200
01/13/1992,6.7647,6.8123,6.7329,6.7806,527600
01/14/1992,6.7806,6.9552,6.7488,6.9076,805200
01/15/1992,6.8759,7.1776,6.8282,7.1299,826800
01/16/1992,7.13,7.305,7.003,7.305,2314400
01/17/1992,7.432,7.448,7.336,7.448,1431200
01/20/1992,7.336,7.336,7.209,7.209,619600
01/21/1992,7.178,7.225,7.146,7.193,808000
01/22/1992,7.162,7.432,7.13,7.432,761600
01/23/1992,7.336,7.384,7.273,7.352,711600
01/24/1992,7.32,7.368,7.305,7.305,346400
01/27/1992,7.305,7.384,7.305,7.384,444400
01/28/1992,7.4,7.4,7.305,7.336,350400
01/29/1992,7.32,7.416,7.273,7.289,431200
01/30/1992,7.273,7.289,7.066,7.114,1437600
01/31/1992,7.114,7.209,7.082,7.178,804400
02/03/1992,7.114,7.162,7.051,7.146,398800
02/04/1992,7.114,7.368,7.114,7.336,612400
02/05/1992,7.32,7.368,7.305,7.352,432800
02/06/1992,7.32,7.463,7.305,7.448,462400
02/07/1992,7.463,7.527,7.336,7.432,691200
02/10/1992,7.4,7.511,7.4,7.463,340000
02/11/1992,7.474,7.538,7.442,7.538,440800
02/12/1992,7.506,7.522,7.426,7.506,377200
02/13/1992,7.538,7.538,7.362,7.41,1190400
02/14/1992,7.378,7.41,7.346,7.394,233200
02/18/1992,7.378,7.506,7.378,7.41,303600
02/19/1992,7.394,7.522,7.378,7.522,674800
02/20/1992,7.522,7.746,7.474,7.746,1310400
02/21/1992,7.746,7.746,7.49,7.49,1604800
02/24/1992,7.49,7.522,7.426,7.522,232400
02/25/1992,7.458,7.49,7.394,7.458,514000
02/26/1992,7.506,7.522,7.474,7.522,374400
02/27/1992,7.522,7.522,7.394,7.426,526800
02/28/1992,7.458,7.474,7.378,7.394,236400
03/02/1992,7.378,7.458,7.362,7.426,554000
03/03/1992,7.394,7.57,7.394,7.554,1162000
03/04/1992,7.586,7.714,7.554,7.682,624400
03/05/1992,7.714,7.73,7.666,7.682,599600
03/06/1992,7.714,7.714,7.586,7.586,502400
03/09/1992,7.634,7.634,7.49,7.49,184800
03/10/1992,7.49,7.554,7.49,7.506,119200
03/11/1992,7.522,7.522,7.282,7.346,439600
03/12/1992,7.378,7.41,7.346,7.362,294000
03/13/1992,7.394,7.458,7.298,7.394,462000
03/16/1992,7.41,7.49,7.362,7.49,548800
03/17/1992,7.554,7.554,7.442,7.442,297200
03/18/1992,7.474,7.506,7.458,7.474,400000
03/19/1992,7.49,7.682,7.458,7.666,600800
03/20/1992,7.65,7.874,7.57,7.874,1046000
03/23/1992,7.762,7.922,7.714,7.906,1028400
03/24/1992,7.874,7.922,7.778,7.81,638400
03/25/1992,7.81,7.826,7.586,7.586,707600
03/26/1992,7.714,7.778,7.698,7.762,275600
03/27/1992,7.746,7.762,7.618,7.682,425200
03/30/1992,7.666,7.666,7.618,7.634,254400
03/31/1992,7.602,7.65,7.554,7.65,376400
04/01/1992,7.65,7.714,7.618,7.65,1124000
04/02/1992,7.65,7.65,7.442,7.442,517600
04/03/1992,7.426,7.474,7.426,7.426,617600
04/06/1992,7.506,7.506,7.362,7.378,766400
04/07/1992,7.378,7.378,7.298,7.378,730800
04/08/1992,7.202,7.202,7.042,7.106,868800
04/09/1992,7.138,7.202,7.09,7.202,1168800
04/10/1992,7.202,7.202,7.138,7.202,771600
04/13/1992,7.186,7.202,7.17,7.17,482000
04/14/1992,7.202,7.586,7.202,7.522,1325600
04/15/1992,7.618,7.778,7.618,7.714,1393600
04/16/1992,7.714,8.194,7.682,8.018,3622000
04/20/1992,8.018,8.387,8.002,8.387,1690800
04/21/1992,8.291,8.291,8.098,8.146,2239600
04/22/1992,8.162,8.227,8.13,8.194,1107600
04/23/1992,8.162,8.178,8.066,8.114,725600
04/24/1992,8.114,8.227,8.066,8.211,1222000
04/27/1992,8.227,8.435,8.227,8.291,1299200
04/28/1992,8.259,8.291,8.162,8.211,2008400
04/29/1992,8.259,8.307,8.194,8.275,566000
04/30/1992,8.291,8.291,8.162,8.211,1378800
05/01/1992,8.211,8.227,8.098,8.194,480800
05/04/1992,8.194,8.259,8.114,8.114,640800
05/05/1992,8.077,8.109,8.013,8.029,881200
05/06/1992,8.077,8.222,8.077,8.19,649200
05/07/1992,8.222,8.287,8.19,8.222,361600
05/08/1992,8.222,8.254,8.077,8.093,498000
05/11/1992,8.158,8.238,8.158,8.238,309200
05/12/1992,8.206,8.206,8.061,8.077,465600
05/13/1992,8.061,8.19,8.029,8.158,415200
05/14/1992,8.222,8.222,8.125,8.158,674800
05/15/1992,8.125,8.125,7.867,7.867,1549200
05/18/1992,7.9,7.964,7.9,7.964,626000
05/19/1992,7.996,8.238,7.964,8.222,419600
05/20/1992,8.222,8.4,8.222,8.351,1988000
05/21/1992,8.335,8.367,8.19,8.254,899600
05/22/1992,8.238,8.303,8.222,8.222,394000
05/26/1992,8.19,8.222,8.109,8.222,559600
05/27/1992,8.222,8.351,8.222,8.335,518000
05/28/1992,8.383,8.48,8.351,8.48,1125600
05/29/1992,8.48,8.803,8.48,8.674,2820000
06/01/1992,8.609,8.641,8.577,8.609,1028400
06/02/1992,8.609,8.625,8.593,8.609,432400
06/03/1992,8.609,8.625,8.577,8.609,1652400
06/04/1992,8.593,8.706,8.593,8.593,1338400
06/05/1992,8.625,8.625,8.512,8.609,690000
06/08/1992,8.577,8.657,8.577,8.657,514000
06/09/1992,8.641,8.641,8.48,8.577,699200
06/10/1992,8.545,8.641,8.528,8.609,618000
06/11/1992,8.625,8.641,8.351,8.367,1260800
06/12/1992,8.4,8.4,8.351,8.367,1612000
06/15/1992,8.351,8.383,8.319,8.319,262800
06/16/1992,8.319,8.319,8.254,8.254,488000
06/17/1992,8.254,8.416,8.254,8.351,1271200
06/18/1992,8.351,8.416,8.351,8.4,1062800
06/19/1992,8.4,8.4,8.303,8.335,1599600
06/22/1992,8.335,8.367,8.238,8.254,359200
06/23/1992,8.254,8.383,8.254,8.335,699600
06/24/1992,8.335,8.383,8.335,8.367,489600
06/25/1992,8.416,8.512,8.416,8.432,350000
06/26/1992,8.448,8.48,8.383,8.448,430800
06/29/1992,8.464,8.464,8.351,8.432,494000
06/30/1992,8.416,8.496,8.416,8.448,728000
07/01/1992,8.464,8.722,8.464,8.69,723200
07/02/1992,8.77,8.77,8.448,8.464,723200
07/06/1992,8.496,8.496,8.367,8.4,1151200
07/07/1992,8.4,8.4,8.335,8.335,1042800
07/08/1992,8.287,8.287,8.19,8.222,826400
07/09/1992,8.222,8.383,8.222,8.383,632400
07/10/1992,8.351,8.351,8.287,8.287,236800
07/13/1992,8.222,8.222,8.061,8.158,619600
07/14/1992,8.125,8.303,8.125,8.303,292800
07/15/1992,8.271,8.448,8.254,8.416,1098000
07/16/1992,8.448,8.609,8.383,8.609,1180400
07/17/1992,8.625,8.625,8.4,8.416,942400
07/20/1992,8.416,8.416,8.19,8.4,391200
07/21/1992,8.432,8.432,8.254,8.319,295600
07/22/1992,8.287,8.303,8.206,8.287,284400
07/23/1992,8.271,8.303,8.19,8.303,687200
07/24/1992,8.303,8.303,8.222,8.287,436800
07/27/1992,8.303,8.303,8.254,8.254,273200
07/28/1992,8.271,8.4,8.238,8.383,1414400
07/29/1992,8.416,8.722,8.4,8.722,1500400
07/30/1992,8.706,8.819,8.609,8.803,585200
07/31/1992,8.77,8.786,8.657,8.657,890400
08/03/1992,8.609,8.722,8.609,8.722,515200
08/04/1992,8.749,8.765,8.749,8.765,408800
08/05/1992,8.733,8.733,8.684,8.684,186800
08/06/1992,8.684,8.684,8.571,8.571,282000
08/07/1992,8.571,8.571,8.441,8.457,532400
08/10/1992,8.408,8.441,8.392,8.392,254400
08/11/1992,8.392,8.425,8.36,8.408,439600
08/12/1992,8.392,8.408,8.376,8.376,570400
08/13/1992,8.392,8.392,8.23,8.23,578800
08/14/1992,8.246,8.295,8.214,8.278,428800
08/17/1992,8.295,8.343,8.295,8.327,458800
08/18/1992,8.311,8.408,8.311,8.392,360800
08/19/1992,8.376,8.408,8.343,8.408,454400
08/20/1992,8.408,8.441,8.408,8.408,235600
08/21/1992,8.441,8.489,8.295,8.311,1096400
08/24/1992,8.214,8.214,7.792,7.889,1370800
08/25/1992,7.889,7.938,7.775,7.792,1002400
08/26/1992,7.564,7.759,7.564,7.71,1852400
08/27/1992,7.727,7.775,7.678,7.775,1331600
08/28/1992,7.775,7.921,7.775,7.921,398400
08/31/1992,7.873,7.905,7.808,7.808,267600
09/01/1992,7.824,7.824,7.759,7.792,266000
09/02/1992,7.775,7.775,7.597,7.694,949600
09/03/1992,7.678,7.84,7.629,7.727,980400
09/04/1992,7.727,7.84,7.727,7.792,888400
09/08/1992,7.792,7.792,7.694,7.694,954800
09/09/1992,7.694,7.71,7.597,7.597,406400
09/10/1992,7.597,7.759,7.58,7.727,731200
09/11/1992,7.743,7.743,7.694,7.743,388800
09/14/1992,7.856,8.132,7.856,8.035,1294400
09/15/1992,8.035,8.035,7.889,7.954,1624800
09/16/1992,7.921,8.116,7.921,8.1,1075600
09/17/1992,8.132,8.165,8.1,8.149,394800
09/18/1992,8.149,8.197,8.132,8.181,805600
09/21/1992,8.165,8.197,8.149,8.165,179600
09/22/1992,8.23,8.23,8.149,8.197,304800
09/23/1992,8.116,8.116,7.889,7.905,620400
09/24/1992,7.938,7.986,7.938,7.938,586800
09/25/1992,7.938,7.938,7.759,7.759,488800
09/28/1992,7.759,7.759,7.629,7.727,610000
09/29/1992,7.727,7.792,7.727,7.775,277200
09/30/1992,7.775,7.775,7.613,7.613,430400
10/01/1992,7.613,7.629,7.434,7.467,1134400
10/02/1992,7.467,7.467,7.418,7.434,538400
10/05/1992,7.353,7.369,7.175,7.272,824800
10/06/1992,7.321,7.386,7.256,7.386,826400
10/07/1992,7.353,7.353,7.077,7.207,2470000
10/08/1992,7.207,7.207,7.094,7.11,2426400
10/09/1992,7.094,7.094,6.947,6.947,783200
10/12/1992,6.9637,6.9961,6.9474,6.9961,925200
10/13/1992,6.9961,7.1909,6.9961,7.1584,2292400
10/14/1992,7.126,7.256,7.126,7.207,1260000
10/15/1992,7.175,7.175,7.11,7.11,823600
10/16/1992,7.11,7.353,7.077,7.321,1461200
10/19/1992,7.305,7.629,7.288,7.597,791600
10/20/1992,7.662,7.775,7.645,7.743,1012400
10/21/1992,7.727,7.824,7.727,7.824,992000
10/22/1992,7.808,7.808,7.678,7.759,523200
10/23/1992,7.775,7.775,7.71,7.759,218000
10/26/1992,7.743,7.938,7.727,7.921,402400
10/27/1992,7.905,7.954,7.889,7.905,406400
10/28/1992,7.873,8.003,7.873,8.003,216400
10/29/1992,8.035,8.035,7.97,8.035,240000
10/30/1992,8.035,8.051,8.003,8.003,221200
11/02/1992,8.019,8.165,7.986,8.149,428400
11/03/1992,8.149,8.311,8.1,8.262,652000
11/04/1992,8.311,8.377,8.279,8.279,822400
11/05/1992,8.279,8.279,8.115,8.115,498800
11/06/1992,8.115,8.164,8.082,8.148,103600
11/09/1992,8.115,8.246,8.115,8.197,190000
11/10/1992,8.05,8.05,7.951,8,815200
11/11/1992,8,8.033,7.919,7.919,292800
11/12/1992,7.935,7.935,7.739,7.771,577200
11/13/1992,7.804,7.87,7.739,7.87,490400
11/16/1992,7.853,7.902,7.853,7.886,341600
11/17/1992,7.935,7.935,7.804,7.853,147200
11/18/1992,7.87,8.05,7.853,7.886,391600
11/19/1992,7.919,7.935,7.886,7.935,191200
11/20/1992,8.033,8.033,7.902,7.919,396400
11/23/1992,7.919,8.082,7.886,8.033,225200
11/24/1992,8,8.328,8,8.213,428400
11/25/1992,8.279,8.328,8.246,8.328,566800
11/27/1992,8.344,8.393,8.328,8.328,254800
11/30/1992,8.328,8.377,8.328,8.377,366800
12/01/1992,8.426,8.589,8.426,8.589,1018800
12/02/1992,8.589,8.606,8.557,8.557,696800
12/03/1992,8.557,8.557,8.442,8.442,339200
12/04/1992,8.409,8.442,8.311,8.426,293600
12/07/1992,8.426,8.475,8.36,8.393,252800
12/08/1992,8.377,8.426,8.279,8.426,388000
12/09/1992,8.426,8.508,8.426,8.442,459200
12/10/1992,8.409,8.426,8.393,8.426,280400
12/11/1992,8.393,8.426,8.328,8.409,304800
12/14/1992,8.426,8.426,8.328,8.328,714000
12/15/1992,8.295,8.409,8.262,8.344,308800
12/16/1992,8.377,8.393,8.295,8.328,324400
12/17/1992,8.311,8.344,8.295,8.328,268800
12/18/1992,8.409,8.475,8.393,8.442,1098400
12/21/1992,8.442,8.508,8.426,8.475,300400
12/22/1992,8.459,8.459,8.295,8.377,647600
12/23/1992,8.377,8.377,8.295,8.36,324000
12/24/1992,8.377,8.377,8.311,8.328,72000
12/28/1992,8.311,8.311,8.262,8.295,85200
12/29/1992,8.311,8.508,8.295,8.491,737600
12/30/1992,8.573,8.688,8.557,8.688,596800
12/31/1992,8.688,8.688,8.54,8.622,254800
01/04/1993,8.622,8.622,8.524,8.573,356000
01/05/1993,8.606,8.688,8.589,8.671,290800
01/06/1993,8.639,8.639,8.54,8.639,193600
01/07/1993,8.704,8.704,8.573,8.589,376800
01/08/1993,8.622,8.622,8.54,8.573,251200
01/11/1993,8.557,8.573,8.508,8.54,244800
01/12/1993,8.54,8.557,8.475,8.508,231600
01/13/1993,8.475,8.475,8.328,8.328,334800
01/14/1993,8.311,8.311,8.082,8.164,782400
01/15/1993,8.197,8.246,8.115,8.131,915200
01/18/1993,8.148,8.279,8.148,8.246,558000
01/19/1993,8.246,8.246,8.131,8.148,331600
01/20/1993,8.148,8.148,8.066,8.099,221200
01/21/1993,8.082,8.099,7.771,8.082,2577200
01/22/1993,8.115,8.311,8.115,8.311,1641200
01/25/1993,8.279,8.311,8.18,8.18,719600
01/26/1993,8.246,8.344,8.213,8.262,592400
01/27/1993,8.246,8.328,8.246,8.279,260400
01/28/1993,8.279,8.279,8.164,8.164,415200
01/29/1993,8.213,8.246,8.18,8.246,312400
02/01/1993,8.246,8.246,8.18,8.18,332800
02/02/1993,8.164,8.23,8.131,8.197,423200
02/03/1993,8.213,8.409,8.197,8.409,828400
02/04/1993,8.491,8.671,8.491,8.671,970800
02/05/1993,8.72,8.835,8.72,8.835,1108400
02/08/1993,8.802,8.9,8.802,8.884,866400
02/09/1993,8.867,8.867,8.818,8.835,770400
02/10/1993,8.818,9.032,8.818,9.016,886000
02/11/1993,9.016,9.214,9.016,9.148,774000
02/12/1993,9.098,9.148,9.032,9.049,577600
02/16/1993,9.032,9.065,8.538,8.538,1307200
02/17/1993,8.538,8.736,8.472,8.703,813200
02/18/1993,8.703,8.703,8.554,8.554,643600
02/19/1993,8.571,8.67,8.505,8.571,406800
02/22/1993,8.604,8.719,8.604,8.719,332400
02/23/1993,8.736,8.769,8.719,8.736,353600
02/24/1993,8.752,8.769,8.703,8.736,299200
02/25/1993,8.719,8.736,8.604,8.653,466400
02/26/1993,8.736,8.736,8.62,8.736,297600
03/01/1993,8.736,8.769,8.653,8.653,318800
03/02/1993,8.67,8.917,8.653,8.884,513600
03/03/1993,8.95,8.95,8.867,8.933,361200
03/04/1993,8.966,8.999,8.851,8.95,471600
03/05/1993,8.966,8.966,8.835,8.9,623600
03/08/1993,8.9,9.032,8.867,9.032,1236800
03/09/1993,9.032,9.065,8.983,9.016,435600
03/10/1993,9.032,9.032,8.95,8.999,317200
03/11/1993,8.933,8.966,8.933,8.95,264800
03/12/1993,8.917,8.933,8.785,8.851,388000
03/15/1993,8.818,8.835,8.703,8.752,257200
03/16/1993,8.769,8.884,8.769,8.884,284400
03/17/1993,8.884,8.884,8.736,8.736,384400
03/18/1993,8.752,8.818,8.736,8.785,597600
03/19/1993,8.867,8.933,8.835,8.835,862000
03/22/1993,8.802,8.999,8.802,8.999,380000
03/23/1993,9.032,9.098,9.016,9.049,731600
03/24/1993,9.065,9.181,8.999,9.181,478000
03/25/1993,9.131,9.148,9.016,9.016,308400
03/26/1993,9.049,9.065,8.917,8.917,300800
03/29/1993,8.933,8.999,8.867,8.917,592000
03/30/1993,8.95,9.148,8.917,9.082,477200
03/31/1993,9.131,9.164,8.95,8.95,437600
04/01/1993,8.933,9.131,8.933,8.999,377600
04/02/1993,8.95,9.049,8.884,8.9,634000
04/05/1993,8.933,9.082,8.9,9.082,562400
04/06/1993,9.065,9.065,8.867,8.9,711600
04/07/1993,8.851,8.867,8.703,8.769,735200
04/08/1993,8.736,8.785,8.67,8.719,588000
04/12/1993,8.752,8.933,8.736,8.917,386800
04/13/1993,8.983,9.049,8.95,8.983,291600
04/14/1993,9.016,9.164,9.016,9.131,939200
04/15/1993,9.115,9.988,9.115,9.692,4030800
04/16/1993,9.692,9.889,9.659,9.823,1558800
04/19/1993,9.856,9.889,9.642,9.79,921200
04/20/1993,9.758,9.774,9.56,9.708,963200
04/21/1993,9.659,9.708,9.609,9.659,226400
04/22/1993,9.659,9.758,9.659,9.692,404000
04/23/1993,9.675,9.692,9.626,9.692,679200
04/26/1993,9.659,9.708,9.527,9.527,885200
04/27/1993,9.527,9.543,9.461,9.527,490800
04/28/1993,9.527,9.626,9.527,9.56,575200
04/29/1993,9.593,9.725,9.593,9.659,738000
04/30/1993,9.692,9.741,9.692,9.725,1077200
05/03/1993,9.708,9.758,9.626,9.741,511200
05/04/1993,9.691,9.691,9.641,9.658,607600
05/05/1993,9.658,9.774,9.658,9.774,436800
05/06/1993,9.741,9.774,9.724,9.741,269200
05/07/1993,9.741,9.824,9.741,9.824,349200
05/10/1993,9.791,9.791,9.558,9.575,520400
05/11/1993,9.575,9.774,9.575,9.724,399600
05/12/1993,9.675,9.691,9.625,9.675,266800
05/13/1993,9.625,9.641,9.542,9.575,647200
05/14/1993,9.525,9.741,9.476,9.724,601200
05/17/1993,9.741,9.741,9.592,9.592,320000
05/18/1993,9.625,9.708,9.542,9.708,1356800
05/19/1993,9.774,9.924,9.724,9.907,1464400
05/20/1993,9.907,9.99,9.841,9.89,1946000
05/21/1993,9.874,9.874,9.724,9.774,871600
05/24/1993,9.774,9.824,9.691,9.691,1180400
05/25/1993,9.708,9.708,9.492,9.592,731200
05/26/1993,9.641,9.841,9.625,9.807,473200
05/27/1993,9.774,9.824,9.641,9.675,377200
05/28/1993,9.658,9.675,9.625,9.641,231600
06/01/1993,9.641,9.691,9.608,9.641,259600
06/02/1993,9.675,9.675,9.558,9.608,580400
06/03/1993,9.608,9.691,9.575,9.675,259200
06/04/1993,9.641,9.641,9.542,9.592,213600
06/07/1993,9.658,9.724,9.658,9.724,202800
06/08/1993,9.691,9.724,9.459,9.592,816000
06/09/1993,9.608,9.625,9.542,9.558,344800
06/10/1993,9.558,9.608,9.027,9.027,1090800
06/11/1993,9.027,9.027,8.729,8.828,1931200
06/14/1993,8.828,8.928,8.812,8.928,1101200
06/15/1993,9.027,9.094,9.027,9.044,708800
06/16/1993,9.077,9.276,9.044,9.276,566000
06/17/1993,9.276,9.359,9.193,9.31,770400
06/18/1993,9.31,9.31,9.193,9.193,485600
06/21/1993,9.193,9.227,9.127,9.144,601600
06/22/1993,9.177,9.21,9.144,9.144,793200
06/23/1993,9.11,9.193,9.044,9.127,650800
06/24/1993,9.11,9.21,9.11,9.193,820800
06/25/1993,9.21,9.21,9.16,9.177,601200
06/28/1993,9.177,9.21,9.11,9.127,382400
06/29/1993,9.027,9.044,8.911,8.911,1378800
06/30/1993,8.928,8.928,8.696,8.696,1095600
07/01/1993,8.762,8.978,8.762,8.944,810000
07/02/1993,8.911,8.944,8.911,8.911,219200
07/06/1993,8.911,8.961,8.812,8.812,295600
07/07/1993,8.812,8.812,8.762,8.762,621200
07/08/1993,8.762,8.795,8.629,8.662,480400
07/09/1993,8.596,8.878,8.596,8.862,1403600
07/12/1993,8.878,8.961,8.878,8.928,351600
07/13/1993,8.895,8.944,8.812,8.828,490800
07/14/1993,8.828,8.895,8.795,8.828,740400
07/15/1993,8.828,9.077,8.779,8.911,1739200
07/16/1993,8.928,9.011,8.928,8.928,396400
07/19/1993,8.961,9.11,8.961,9.11,277200
07/20/1993,9.11,9.16,9.094,9.11,380400
07/21/1993,9.11,9.16,9.11,9.11,466000
07/22/1993,9.11,9.144,9.094,9.144,424400
07/23/1993,9.127,9.193,9.127,9.193,344400
07/26/1993,9.21,9.26,9.193,9.21,125600
07/27/1993,9.21,9.359,9.21,9.293,346400
07/28/1993,9.293,9.293,9.227,9.243,246400
07/29/1993,9.243,9.243,9.21,9.21,193200
07/30/1993,9.227,9.227,9.094,9.193,380800
08/02/1993,9.227,9.243,9.144,9.193,234800
08/03/1993,9.127,9.21,9.11,9.21,267200
08/04/1993,9.232,9.232,9.182,9.199,264800
08/05/1993,9.266,9.266,9.182,9.215,153200
08/06/1993,9.215,9.316,9.215,9.316,214800
08/09/1993,9.316,9.433,9.316,9.383,445600
08/10/1993,9.383,9.433,9.366,9.416,341200
08/11/1993,9.433,9.5,9.433,9.483,244000
08/12/1993,9.483,9.6,9.165,9.266,579600
08/13/1993,9.249,9.399,9.232,9.383,285600
08/16/1993,9.366,9.533,9.332,9.533,436000
08/17/1993,9.6,9.6,9.45,9.466,243200
08/18/1993,9.433,9.433,9.349,9.383,172400
08/19/1993,9.383,9.383,9.232,9.249,966000
08/20/1993,9.249,9.266,9.048,9.082,2262400
08/23/1993,9.098,9.215,8.998,8.998,1256400
08/24/1993,9.015,9.165,8.981,9.148,936000
08/25/1993,9.132,9.282,9.115,9.232,893600
08/26/1993,9.232,9.232,9.148,9.199,353200
08/27/1993,9.199,9.199,9.132,9.165,225600
08/30/1993,9.148,9.148,9.065,9.065,555600
08/31/1993,9.065,9.082,8.998,9.082,513600
09/01/1993,9.098,9.098,9.031,9.082,435200
09/02/1993,9.082,9.115,9.031,9.031,180000
09/03/1993,9.031,9.199,9.015,9.165,199200
09/07/1993,9.148,9.182,9.031,9.065,514000
09/08/1993,9.031,9.082,8.998,9.048,776000
09/09/1993,9.031,9.031,8.964,8.981,1228400
09/10/1993,8.998,9.148,8.998,9.148,581600
09/13/1993,9.165,9.232,9.165,9.232,338000
09/14/1993,9.215,9.266,9.165,9.215,808000
09/15/1993,9.199,9.199,9.065,9.098,598400
09/16/1993,9.098,9.165,9.031,9.165,796400
09/17/1993,9.031,9.132,8.964,8.981,1432400
09/20/1993,8.948,9.031,8.847,8.881,728000
09/21/1993,8.914,8.931,8.68,8.797,1044800
09/22/1993,8.814,8.831,8.63,8.663,980400
09/23/1993,8.68,8.747,8.663,8.663,1497600
09/24/1993,8.663,8.73,8.663,8.697,334400
09/27/1993,8.764,8.814,8.764,8.797,560000
09/28/1993,8.781,8.864,8.764,8.847,560800
09/29/1993,8.814,8.881,8.764,8.781,584000
09/30/1993,8.764,8.831,8.697,8.73,508400
10/01/1993,8.73,8.964,8.73,8.914,358800
10/04/1993,8.914,8.948,8.847,8.864,320000
10/05/1993,8.931,8.931,8.781,8.864,326000
10/06/1993,8.898,8.914,8.831,8.847,601600
10/07/1993,8.847,8.847,8.764,8.764,486800
10/08/1993,8.797,8.797,8.73,8.781,398400
10/11/1993,8.781,8.781,8.764,8.764,120800
10/12/1993,8.781,8.797,8.764,8.764,635600
10/13/1993,8.747,8.747,8.663,8.697,1042000
10/14/1993,8.663,8.864,8.663,8.747,1268800
10/15/1993,8.797,8.898,8.797,8.864,663600
10/18/1993,8.831,8.914,8.797,8.898,255600
10/19/1993,8.898,9.031,8.898,8.948,574800
10/20/1993,8.964,8.981,8.864,8.881,392800
10/21/1993,8.898,8.898,8.73,8.781,632000
10/22/1993,8.764,8.864,8.714,8.797,856000
10/25/1993,8.747,9.015,8.747,8.981,826000
10/26/1993,8.981,9.082,8.981,9.065,598000
10/27/1993,9.082,9.366,9.065,9.332,1365200
10/28/1993,9.332,9.483,9.332,9.433,595600
10/29/1993,9.433,9.433,9.332,9.332,251200
11/01/1993,9.299,9.533,9.299,9.533,636400
11/02/1993,9.55,9.7,9.5,9.6,968400
11/03/1993,9.633,9.633,9.45,9.483,356800
11/04/1993,9.404,9.522,9.37,9.387,625600
11/05/1993,9.37,9.471,9.269,9.37,675200
11/08/1993,9.387,9.471,9.387,9.455,427200
11/09/1993,9.438,9.539,9.438,9.472,408000
11/10/1993,9.488,9.573,9.421,9.573,442800
11/11/1993,9.539,9.674,9.488,9.522,996400
11/12/1993,9.505,9.606,9.488,9.573,344800
11/15/1993,9.606,9.606,9.455,9.472,367200
11/16/1993,9.505,9.623,9.488,9.573,428000
11/17/1993,9.556,9.589,9.471,9.505,654000
11/18/1993,9.505,9.522,9.471,9.522,336000
11/19/1993,9.589,9.589,9.421,9.589,776000
11/22/1993,9.589,9.674,9.539,9.64,864000
11/23/1993,9.674,9.691,9.522,9.556,421200
11/24/1993,9.589,9.64,9.556,9.573,344800
11/26/1993,9.606,9.657,9.589,9.623,158400
11/29/1993,9.623,9.724,9.606,9.606,334000
11/30/1993,9.606,9.724,9.539,9.539,859200
12/01/1993,9.674,9.691,9.606,9.64,668800
12/02/1993,9.674,9.674,9.556,9.589,336000
12/03/1993,9.606,9.606,9.556,9.606,316000
12/06/1993,9.606,9.64,9.522,9.522,126400
12/07/1993,9.505,9.573,9.488,9.556,447200
12/08/1993,9.539,9.64,9.539,9.64,458400
12/09/1993,9.674,9.691,9.589,9.606,300800
12/10/1993,9.623,9.741,9.589,9.741,419600
12/13/1993,9.741,9.893,9.657,9.876,524000
12/14/1993,9.876,9.876,9.775,9.842,420000
12/15/1993,9.825,9.977,9.825,9.977,556400
12/16/1993,9.943,10.028,9.943,10.028,654000
12/17/1993,10.028,10.146,10.028,10.078,948800
12/20/1993,10.045,10.112,9.994,9.994,49200
12/21/1993,9.994,9.994,9.91,9.943,233600
12/22/1993,10.011,10.179,9.876,10.179,1285200
12/23/1993,10.179,10.196,10.061,10.095,235600
12/27/1993,10.129,10.213,10.129,10.179,222800
12/28/1993,10.146,10.179,10.095,10.112,563200
12/29/1993,10.112,10.146,10.061,10.078,435600
12/30/1993,10.095,10.146,10.061,10.129,378800
12/31/1993,10.112,10.28,10.112,10.23,447200
01/03/1994,10.179,10.213,10.095,10.112,460000
01/04/1994,10.095,10.112,10.045,10.112,283200
01/05/1994,10.078,10.23,10.028,10.196,515600
01/06/1994,10.196,10.264,10.196,10.264,294000
01/07/1994,10.264,10.264,10.162,10.162,521600
01/10/1994,10.213,10.297,10.179,10.297,1106800
01/11/1994,10.247,10.382,10.213,10.382,882800
01/12/1994,10.365,10.449,10.264,10.264,541200
01/13/1994,10.247,10.314,10.23,10.23,337200
01/14/1994,10.264,10.331,10.129,10.196,771600
01/17/1994,10.196,10.23,10.129,10.179,424800
01/18/1994,10.146,10.247,10.129,10.196,400800
01/19/1994,10.247,10.382,10.247,10.331,616800
01/20/1994,10.331,10.516,10.314,10.449,865600
01/21/1994,10.5,10.5,10.247,10.314,699200
01/24/1994,10.247,10.432,10.23,10.365,535600
01/25/1994,10.382,10.432,10.297,10.297,488800
01/26/1994,10.264,10.348,10.247,10.348,613200
01/27/1994,10.449,10.516,10.398,10.516,1553200
01/28/1994,10.55,10.55,10.449,10.533,312000
01/31/1994,10.516,10.634,10.449,10.634,843600
02/01/1994,10.601,10.719,10.584,10.668,892000
02/02/1994,10.735,10.82,10.668,10.786,1198000
02/03/1994,10.786,10.853,10.735,10.853,746800
02/04/1994,10.837,10.837,10.651,10.651,749600
02/07/1994,10.651,10.752,10.567,10.752,1032000
02/08/1994,10.752,10.769,10.719,10.752,474400
02/09/1994,10.752,10.887,10.752,10.853,1366000
02/10/1994,10.887,10.904,10.803,10.803,1162800
02/11/1994,10.786,10.82,10.719,10.752,512800
02/14/1994,10.769,10.87,10.702,10.702,834800
02/15/1994,10.707,10.741,10.673,10.673,456000
02/16/1994,10.707,10.707,10.554,10.588,736800
02/17/1994,10.622,10.639,10.419,10.487,1050000
02/18/1994,10.504,10.588,10.487,10.521,383600
02/22/1994,10.487,10.571,10.47,10.487,498800
02/23/1994,10.554,10.571,10.47,10.487,441600
02/24/1994,10.453,10.554,10.453,10.453,566800
02/25/1994,10.487,10.487,10.351,10.385,616400
02/28/1994,10.368,10.538,10.368,10.419,685200
03/01/1994,10.419,10.419,10.198,10.283,426000
03/02/1994,10.215,10.283,10.164,10.283,607600
03/03/1994,10.266,10.266,10.181,10.215,537200
03/04/1994,10.232,10.3,10.198,10.249,551200
03/07/1994,10.215,10.232,10.181,10.198,672800
03/08/1994,10.198,10.198,10.13,10.147,850000
03/09/1994,10.181,10.215,10.13,10.198,732800
03/10/1994,10.215,10.266,10.164,10.249,805600
03/11/1994,10.232,10.385,10.232,10.385,520400
03/14/1994,10.385,10.639,10.385,10.639,910800
03/15/1994,10.622,10.792,10.504,10.741,1138000
03/16/1994,10.741,10.86,10.69,10.826,877200
03/17/1994,10.809,10.86,10.792,10.792,518400
03/18/1994,10.809,10.809,10.741,10.775,1190400
03/21/1994,10.741,10.741,10.538,10.622,621600
03/22/1994,10.656,10.724,10.622,10.656,556400
03/23/1994,10.639,10.724,10.622,10.639,435600
03/24/1994,10.639,10.656,10.571,10.588,295600
03/25/1994,10.622,10.622,10.436,10.436,417600
03/28/1994,10.419,10.504,10.147,10.147,961600
03/29/1994,10.147,10.147,9.893,9.978,1770000
03/30/1994,9.978,10.181,9.978,9.995,1285600
03/31/1994,9.978,10.113,9.927,10.096,694400
04/04/1994,9.927,10.028,9.91,10.028,808400
04/05/1994,10.096,10.181,10.096,10.181,637200
04/06/1994,10.215,10.266,10.13,10.198,650400
04/07/1994,10.232,10.317,10.096,10.317,700400
04/08/1994,10.317,10.368,10.283,10.317,361200
04/11/1994,10.334,10.436,10.3,10.436,609200
04/12/1994,10.436,10.47,10.368,10.368,345600
04/13/1994,10.368,10.419,10.249,10.334,329600
04/14/1994,10.266,10.266,10.147,10.183,582400
04/15/1994,10.147,10.215,10.13,10.13,856800
04/18/1994,10.147,10.147,9.91,9.944,788400
04/19/1994,9.91,9.995,9.842,9.876,744000
04/20/1994,9.91,9.927,9.502,9.604,1463600
04/21/1994,9.621,9.842,9.401,9.757,1876400
04/22/1994,9.808,10.012,9.774,10.012,918400
04/25/1994,9.978,10.079,9.876,10.045,361600
04/26/1994,10.045,10.317,10.045,10.266,746800
04/28/1994,10.266,10.351,10.13,10.181,503600
04/29/1994,10.147,10.317,10.147,10.283,481600
05/02/1994,10.266,10.3,10.147,10.232,1162800
05/03/1994,10.232,10.3,10.215,10.3,260400
05/04/1994,10.291,10.308,10.171,10.223,340400
05/05/1994,10.257,10.291,10.223,10.291,436400
05/06/1994,10.257,10.257,10.103,10.12,647600
05/09/1994,10.103,10.103,9.778,9.83,700800
05/10/1994,9.864,9.881,9.727,9.795,1225200
05/11/1994,9.812,9.983,9.812,9.983,586400
05/12/1994,9.983,10.086,9.983,10.035,500400
05/13/1994,10.035,10.103,9.983,10.035,241600
05/16/1994,10.086,10.24,10.086,10.206,819600
05/17/1994,10.206,10.308,10.189,10.308,1042400
05/18/1994,10.342,10.394,10.257,10.394,614800
05/19/1994,10.377,10.462,10.342,10.445,917200
05/20/1994,10.445,10.496,10.411,10.445,966800
05/23/1994,10.445,10.462,10.359,10.394,430800
05/24/1994,10.274,10.342,10.24,10.24,1037600
05/25/1994,10.257,10.257,10.154,10.24,485600
05/26/1994,10.24,10.325,10.24,10.325,270400
05/27/1994,10.291,10.342,10.223,10.24,467600
05/31/1994,10.257,10.257,10.189,10.223,336400
06/01/1994,10.24,10.291,10.171,10.257,490000
06/02/1994,10.24,10.257,10.154,10.189,220000
06/03/1994,10.189,10.24,10.086,10.206,554800
06/06/1994,10.274,10.291,10.171,10.171,413200
06/07/1994,10.206,10.206,10.103,10.154,514400
06/08/1994,10.171,10.171,10.052,10.137,264000
06/09/1994,10.171,10.274,10.154,10.257,712800
06/10/1994,10.223,10.377,10.223,10.377,556800
06/13/1994,10.291,10.599,10.291,10.599,557200
06/14/1994,10.599,10.804,10.565,10.736,933600
06/15/1994,10.77,10.804,10.736,10.77,1046000
06/16/1994,10.736,10.77,10.599,10.599,684600
06/17/1994,10.701,10.701,10.565,10.599,1030200
06/20/1994,10.496,10.496,10.257,10.257,247600
06/21/1994,10.325,10.428,10.223,10.428,509000
06/22/1994,10.53,10.667,10.496,10.667,562600
06/23/1994,10.599,10.599,10.394,10.394,567400
06/24/1994,10.394,10.394,10.291,10.359,422000
06/27/1994,10.325,10.462,10.223,10.462,748400
06/28/1994,10.496,10.496,10.359,10.394,890400
06/29/1994,10.325,10.462,10.291,10.359,688600
06/30/1994,10.359,10.394,10.223,10.257,278800
07/01/1994,10.359,10.462,10.325,10.428,389800
07/05/1994,10.394,10.462,10.394,10.462,989800
07/06/1994,10.428,10.428,10.325,10.394,352400
07/07/1994,10.359,10.462,10.291,10.394,317000
07/08/1994,10.428,10.496,10.394,10.496,556000
07/11/1994,10.53,10.53,10.359,10.496,173200
07/12/1994,10.462,10.53,10.394,10.462,463000
07/13/1994,10.394,10.462,10.359,10.359,546800
07/14/1994,10.428,10.496,10.394,10.496,556400
07/15/1994,10.496,10.667,10.496,10.667,916000
07/18/1994,10.667,10.77,10.599,10.701,587200
07/19/1994,10.736,10.872,10.667,10.872,907400
07/20/1994,10.906,10.906,10.736,10.804,567000
07/21/1994,10.804,10.804,10.53,10.633,720400
07/22/1994,10.599,10.701,10.565,10.667,335600
07/25/1994,10.633,10.667,10.599,10.667,215000
07/26/1994,10.667,10.667,10.496,10.496,420800
07/27/1994,10.394,10.462,10.291,10.394,535000
07/28/1994,10.394,10.496,10.325,10.496,339800
07/29/1994,10.53,10.77,10.394,10.701,663600
08/01/1994,10.667,10.667,10.496,10.599,264600
08/02/1994,10.565,10.633,10.496,10.496,267400
08/03/1994,10.496,10.667,10.428,10.667,418600
08/04/1994,10.675,10.675,10.469,10.503,540800
08/05/1994,10.469,10.572,10.4,10.4,606000
08/08/1994,10.434,10.469,10.365,10.469,320800
08/09/1994,10.469,10.503,10.365,10.469,452800
08/10/1994,10.503,10.503,10.365,10.469,398400
08/11/1994,10.4,10.607,10.4,10.572,744600
08/12/1994,10.572,10.607,10.538,10.572,413800
08/15/1994,10.572,10.607,10.434,10.469,397800
08/16/1994,10.572,10.607,10.503,10.572,244800
08/17/1994,10.607,10.744,10.538,10.744,695400
08/18/1994,10.675,10.71,10.572,10.641,449400
08/19/1994,10.71,10.71,10.572,10.607,1718200
08/22/1994,10.538,10.71,10.503,10.675,910400
08/23/1994,10.675,10.916,10.641,10.848,418600
08/24/1994,10.848,11.123,10.779,11.02,863600
08/25/1994,10.985,11.02,10.71,10.779,658400
08/26/1994,10.951,11.192,10.882,11.089,529800
08/29/1994,11.192,11.364,11.054,11.123,792600
08/30/1994,11.123,11.467,11.123,11.399,1173000
08/31/1994,11.364,11.502,11.364,11.467,672800
09/01/1994,11.467,11.467,11.399,11.467,432800
09/02/1994,11.502,11.536,11.433,11.502,272800
09/06/1994,11.467,11.536,11.467,11.536,341600
09/07/1994,11.536,11.536,11.295,11.33,589200
09/08/1994,11.33,11.399,11.295,11.33,1019600
09/09/1994,11.261,11.261,11.089,11.089,476000
09/12/1994,11.295,11.295,11.02,11.089,513800
09/13/1994,11.158,11.226,11.123,11.192,386600
09/14/1994,11.123,11.158,11.054,11.054,237400
09/15/1994,11.295,11.364,11.192,11.364,414800
09/16/1994,11.33,11.399,11.261,11.33,968800
09/19/1994,11.295,11.605,11.295,11.364,608000
09/20/1994,11.364,11.433,11.054,11.054,874000
09/21/1994,11.054,11.089,10.779,10.916,442400
09/22/1994,10.951,11.02,10.813,10.916,627000
09/23/1994,10.951,10.951,10.744,10.744,394400
09/26/1994,10.744,10.882,10.607,10.641,1004600
09/27/1994,10.675,10.675,10.572,10.607,639800
09/28/1994,10.641,10.813,10.607,10.813,936600
09/29/1994,10.813,10.985,10.813,10.951,517800
09/30/1994,10.916,11.226,10.882,10.916,827400
10/03/1994,10.951,10.951,10.744,10.779,513000
10/04/1994,10.744,10.779,10.538,10.641,453600
10/05/1994,10.538,10.744,10.503,10.71,648600
10/06/1994,10.675,10.71,10.469,10.503,359200
10/07/1994,10.538,10.538,10.4,10.4,496600
10/10/1994,10.4,10.538,10.4,10.538,280200
10/11/1994,10.538,11.02,10.538,10.882,466800
10/12/1994,10.882,10.882,10.71,10.744,178800
10/13/1994,10.882,10.985,10.779,10.848,718000
10/14/1994,10.848,10.848,10.71,10.813,381400
10/17/1994,10.744,10.813,10.71,10.779,400000
10/18/1994,10.779,11.089,10.779,11.054,445600
10/19/1994,11.089,11.089,10.813,10.882,1406000
10/20/1994,10.951,11.089,10.882,10.985,1044600
10/21/1994,10.985,10.985,10.916,10.985,353200
10/24/1994,10.985,10.985,10.916,10.916,765800
10/25/1994,10.916,10.985,10.848,10.916,1392600
10/26/1994,11.02,11.02,10.882,10.985,922800
10/27/1994,10.985,11.02,10.968,11.02,1172000
10/28/1994,10.985,11.261,10.985,11.261,330000
10/31/1994,11.261,11.433,11.226,11.226,458400
11/01/1994,11.158,11.192,11.02,11.02,800000
11/02/1994,11.089,11.089,10.916,10.916,1815200
11/03/1994,10.951,10.951,10.882,10.916,510400
11/04/1994,10.962,11.032,10.754,10.824,570600
11/07/1994,10.789,10.824,10.754,10.754,683200
11/08/1994,10.754,10.928,10.685,10.719,376800
11/09/1994,10.858,10.893,10.65,10.789,600000
11/10/1994,10.858,10.893,10.789,10.789,453600
11/11/1994,10.719,10.754,10.581,10.581,328000
11/14/1994,10.546,10.546,10.268,10.373,1166200
11/15/1994,10.477,10.581,10.373,10.442,1938600
11/16/1994,10.511,10.546,10.407,10.442,794600
11/17/1994,10.442,10.477,10.13,10.13,1023600
11/18/1994,10.13,10.199,10.06,10.095,1279200
11/21/1994,10.06,10.06,9.817,9.817,1339200
11/22/1994,9.817,9.852,9.54,9.748,1298000
11/23/1994,9.644,9.748,9.367,9.401,2131200
11/25/1994,9.436,9.54,9.436,9.505,531400
11/28/1994,9.471,9.887,9.471,9.748,1304400
11/29/1994,9.783,9.991,9.748,9.991,2000400
11/30/1994,9.956,10.06,9.956,9.991,1091800
12/01/1994,9.991,10.13,9.956,10.06,633200
12/02/1994,10.06,10.234,10.026,10.234,640800
12/05/1994,10.199,10.338,9.367,9.748,5366800
12/06/1994,9.956,9.956,9.644,9.644,2083200
12/07/1994,9.575,9.817,9.575,9.783,1350600
12/08/1994,9.887,9.922,9.852,9.852,545600
12/09/1994,9.817,9.922,9.713,9.713,1050200
12/12/1994,9.748,9.991,9.748,9.991,647000
12/13/1994,9.991,10.199,9.991,10.06,640200
12/14/1994,10.164,10.442,10.164,10.442,1396800
12/15/1994,10.373,10.65,10.373,10.511,958600
12/16/1994,10.546,10.581,10.511,10.581,1296800
12/19/1994,10.546,10.546,10.407,10.511,890800
12/20/1994,10.546,10.789,10.546,10.789,759200
12/21/1994,10.789,10.997,10.789,10.928,1025800
12/22/1994,10.962,11.066,10.858,10.893,731600
12/23/1994,10.824,10.893,10.824,10.824,468000
12/27/1994,10.893,10.893,10.65,10.685,653200
12/28/1994,10.685,10.685,10.407,10.546,735800
12/29/1994,10.477,10.511,10.234,10.303,1103800
12/30/1994,10.373,10.477,10.303,10.303,559000
01/03/1995,10.303,10.511,10.303,10.407,800000
01/04/1995,10.303,10.442,10.303,10.442,734200
01/05/1995,10.373,10.581,10.338,10.546,409800
01/06/1995,10.615,10.685,10.581,10.685,878600
01/09/1995,10.615,10.858,10.615,10.754,838200
01/10/1995,10.789,10.962,10.789,10.824,521600
01/11/1995,10.928,10.997,10.789,10.893,493000
01/12/1995,10.858,10.962,10.789,10.858,292000
01/13/1995,10.962,11.066,10.858,10.893,711000
01/16/1995,10.962,10.997,10.719,10.754,321400
01/17/1995,10.719,10.719,10.477,10.546,642400
01/18/1995,10.546,10.65,10.511,10.65,402000
01/19/1995,10.546,10.719,10.268,10.268,1003400
01/20/1995,10.338,10.494,10.338,10.407,340200
01/23/1995,9.991,10.095,9.991,10.026,545400
01/24/1995,10.026,10.164,10.026,10.026,490600
01/25/1995,9.956,10.095,9.956,10.026,694800
01/26/1995,9.991,9.991,9.748,9.852,1344000
01/27/1995,9.956,10.06,9.887,9.922,787400
01/30/1995,9.887,9.887,9.679,9.748,1170600
01/31/1995,9.748,9.852,9.748,9.748,721200
02/01/1995,9.783,9.922,9.748,9.852,871600
02/02/1995,9.956,9.991,9.922,9.991,509800
02/03/1995,10.06,10.13,9.991,10.095,984200
02/06/1995,10.13,10.234,10.095,10.164,702400
02/07/1995,10.164,10.338,10.164,10.303,906600
02/08/1995,10.338,10.477,10.338,10.442,320600
02/09/1995,10.477,10.546,10.338,10.407,548200
02/10/1995,10.407,10.511,10.303,10.338,445800
02/13/1995,10.338,10.477,10.303,10.477,370000
02/14/1995,10.488,10.488,10.418,10.453,206200
02/15/1995,10.488,10.628,10.418,10.488,693400
02/16/1995,10.488,10.558,10.418,10.488,523400
02/17/1995,10.488,10.488,10.348,10.348,601800
02/21/1995,10.418,10.453,10.383,10.383,557400
02/22/1995,10.418,10.453,10.348,10.348,501200
02/23/1995,10.453,10.593,10.383,10.558,312200
02/24/1995,10.558,10.558,10.313,10.348,633800
02/27/1995,10.348,10.383,10.208,10.243,537400
02/28/1995,10.278,10.348,10.208,10.278,815800
03/01/1995,10.348,10.453,10.243,10.453,973600
03/02/1995,10.418,10.418,10.208,10.243,519800
03/03/1995,10.208,10.278,10.208,10.278,230800
03/06/1995,10.243,10.313,10.208,10.243,186200
03/07/1995,10.243,10.243,9.998,10.068,504800
03/08/1995,10.068,10.138,9.998,10.068,218600
03/09/1995,9.998,10.103,9.928,9.928,1040200
03/10/1995,9.998,10.103,9.963,9.998,676200
03/13/1995,9.998,10.068,9.963,9.998,567600
03/14/1995,10.068,10.103,9.824,9.859,1186400
03/15/1995,9.893,9.911,9.824,9.859,717000
03/16/1995,9.859,10.068,9.859,10.068,958400
03/17/1995,10.068,10.068,9.928,9.998,981600
03/20/1995,10.033,10.068,9.963,9.998,675000
03/21/1995,9.998,10.138,9.998,10.068,362000
03/22/1995,10.068,10.173,10.068,10.103,373000
03/23/1995,10.103,10.138,10.068,10.138,596000
03/24/1995,10.103,10.418,10.103,10.383,495800
03/27/1995,10.418,10.698,10.418,10.663,429000
03/28/1995,10.698,10.733,10.558,10.593,655000
03/29/1995,10.593,10.907,10.558,10.907,1507800
03/30/1995,10.837,10.977,10.733,10.907,982400
03/31/1995,10.802,10.872,10.558,10.558,631200
04/03/1995,10.698,10.733,10.593,10.663,335000
04/04/1995,10.767,10.837,10.698,10.802,559800
04/05/1995,10.698,10.767,10.628,10.628,377800
04/06/1995,10.698,10.698,10.418,10.418,767800
04/07/1995,10.453,10.453,10.313,10.453,828600
04/10/1995,10.383,10.523,10.348,10.383,278600
04/11/1995,10.453,10.488,10.313,10.418,213800
04/12/1995,10.348,10.523,10.348,10.523,193200
04/13/1995,10.558,10.663,10.488,10.593,285800
04/17/1995,10.593,10.628,10.243,10.348,908200
04/18/1995,10.383,10.383,10.278,10.313,631600
04/19/1995,10.313,10.488,10.278,10.453,257600
04/20/1995,10.453,10.802,10.418,10.733,611800
04/21/1995,10.837,10.837,10.628,10.767,1654000
04/24/1995,10.767,10.907,10.698,10.907,523800
04/25/1995,10.837,11.152,10.837,11.082,574400
04/26/1995,11.012,11.082,10.942,11.047,285800
04/27/1995,10.977,10.977,10.767,10.942,843000
04/28/1995,10.942,11.012,10.872,11.012,641800
05/01/1995,10.942,11.047,10.907,11.047,508800
05/02/1995,10.977,11.152,10.977,11.117,580800
05/03/1995,11.082,11.117,10.977,11.012,496200
05/04/1995,10.953,11.235,10.953,11.059,836000
05/05/1995,11.129,11.235,10.988,11.023,960000
05/08/1995,10.953,10.988,10.847,10.918,1023200
05/09/1995,10.953,11.023,10.883,10.953,1403200
05/10/1995,10.988,10.988,10.883,10.918,792800
05/11/1995,10.812,10.883,10.636,10.777,1585000
05/12/1995,10.777,10.812,10.706,10.777,1102400
05/15/1995,10.918,11.411,10.918,11.411,1258600
05/16/1995,11.481,11.587,11.411,11.446,563200
05/17/1995,11.411,11.411,11.27,11.376,762400
05/18/1995,11.376,11.376,11.235,11.27,710000
05/19/1995,11.235,11.27,11.2,11.27,659800
05/22/1995,11.305,11.34,11.2,11.27,408800
05/23/1995,11.235,11.27,11.164,11.235,704800
05/24/1995,11.305,11.411,11.305,11.376,689400
05/25/1995,11.27,11.27,11.129,11.129,760000
05/26/1995,11.164,11.2,11.094,11.164,864800
05/30/1995,11.27,11.552,11.27,11.552,828600
05/31/1995,11.481,11.763,11.411,11.728,1040200
06/01/1995,11.622,11.693,11.552,11.693,660400
06/02/1995,11.411,11.622,11.411,11.622,886600
06/05/1995,11.411,11.693,11.411,11.693,783200
06/06/1995,11.657,11.798,11.622,11.798,582400
06/07/1995,11.728,11.904,11.728,11.833,407000
06/08/1995,11.833,12.01,11.798,11.904,1028000
06/09/1995,11.833,11.869,11.693,11.693,440800
06/12/1995,11.728,11.904,11.728,11.869,650800
06/13/1995,11.974,12.045,11.481,11.481,1589600
06/14/1995,11.411,11.622,11.129,11.552,2565800
06/15/1995,11.552,11.693,11.517,11.657,291400
06/16/1995,11.587,11.587,11.411,11.411,1061600
06/19/1995,11.446,11.763,11.411,11.763,440800
06/20/1995,11.657,11.728,11.587,11.728,515800
06/21/1995,11.833,11.869,11.763,11.869,836000
06/22/1995,11.833,11.833,11.763,11.833,803400
06/23/1995,11.763,11.833,11.728,11.833,422600
06/26/1995,11.798,11.833,11.763,11.833,297200
06/27/1995,11.798,11.833,11.763,11.833,353800
06/28/1995,11.798,11.833,11.763,11.833,462000
06/29/1995,11.833,11.904,11.763,11.904,351000
06/30/1995,11.939,12.115,11.904,12.08,546000
07/03/1995,12.045,12.115,12.01,12.115,164200
07/05/1995,12.045,12.186,12.01,12.08,387400
07/06/1995,12.15,12.256,11.974,12.221,398200
07/07/1995,12.186,12.82,12.186,12.679,1688000
07/10/1995,12.679,12.96,12.644,12.855,691600
07/11/1995,12.784,12.784,12.538,12.538,556800
07/12/1995,12.503,12.679,12.397,12.608,406200
07/13/1995,12.679,12.749,12.573,12.749,442400
07/14/1995,12.679,12.714,12.538,12.644,396400
07/17/1995,12.573,12.608,12.538,12.573,578400
07/18/1995,12.503,12.503,12.186,12.256,835800
07/19/1995,12.221,12.221,11.904,12.15,1137400
07/20/1995,12.08,12.221,11.939,12.08,779200
07/21/1995,12.045,12.291,12.01,12.291,1020800
07/24/1995,12.362,12.397,12.221,12.362,817600
07/25/1995,12.291,12.432,12.291,12.397,654000
07/26/1995,12.397,12.714,12.397,12.644,1366200
07/27/1995,12.538,12.749,12.503,12.749,601800
07/28/1995,12.749,12.784,12.644,12.714,695400
07/31/1995,12.644,13.066,12.644,12.89,990800
08/01/1995,12.925,12.996,12.89,12.96,972800
08/02/1995,12.855,12.925,12.855,12.89,1060800
08/03/1995,12.784,12.82,12.679,12.82,559000
08/04/1995,12.82,12.82,12.749,12.749,1406000
08/07/1995,12.784,12.82,12.714,12.749,498000
08/08/1995,12.763,12.834,12.728,12.728,510000
08/09/1995,12.763,12.763,12.515,12.551,496000
08/10/1995,12.551,12.551,12.373,12.373,859800
08/11/1995,12.373,12.444,12.161,12.196,777200
08/14/1995,12.196,12.409,12.196,12.373,356800
08/15/1995,12.302,12.373,12.267,12.338,560000
08/16/1995,12.338,12.409,12.267,12.409,507200
08/17/1995,12.373,12.373,12.196,12.196,773800
08/18/1995,12.196,12.232,12.09,12.196,975200
08/21/1995,12.196,12.373,12.196,12.338,557400
08/22/1995,12.232,12.338,12.232,12.232,817200
08/23/1995,12.302,12.338,12.267,12.267,763200
08/24/1995,12.196,12.232,12.019,12.019,448400
08/25/1995,12.09,12.196,12.054,12.125,468200
08/28/1995,12.125,12.196,12.054,12.161,398000
08/29/1995,12.125,12.161,12.072,12.09,1028400
08/30/1995,12.125,12.125,12.019,12.054,889800
08/31/1995,12.054,12.125,12.019,12.125,816400
09/01/1995,12.09,12.267,12.09,12.267,650000
09/05/1995,12.338,12.373,12.196,12.373,249200
09/06/1995,12.302,12.515,12.267,12.444,935400
09/07/1995,12.444,12.551,12.444,12.551,414200
09/08/1995,12.622,12.692,12.515,12.657,774400
09/11/1995,12.728,12.905,12.657,12.87,427600
09/12/1995,12.87,12.905,12.763,12.799,673400
09/13/1995,12.728,12.87,12.728,12.87,656800
09/14/1995,12.87,13.189,12.834,13.189,800400
09/15/1995,13.295,13.295,13.189,13.224,968400
09/18/1995,13.153,13.331,13.153,13.295,537200
09/19/1995,13.295,13.331,13.189,13.224,989000
09/20/1995,13.26,13.295,13.082,13.118,508400
09/21/1995,13.153,13.153,12.905,12.976,439400
09/22/1995,12.834,12.941,12.834,12.905,680400
09/25/1995,12.905,13.153,12.905,13.047,1482000
09/26/1995,13.047,13.118,13.047,13.047,349800
09/27/1995,13.047,13.153,13.012,13.118,620200
09/28/1995,13.153,13.153,12.976,13.047,677400
09/29/1995,13.047,13.189,13.047,13.153,510000
10/02/1995,13.224,13.224,12.941,12.976,547800
10/03/1995,12.976,13.047,12.87,12.87,691200
10/04/1995,12.87,12.87,12.551,12.622,1111000
10/05/1995,12.692,12.834,12.622,12.763,401800
10/06/1995,12.657,12.728,12.622,12.657,639400
10/09/1995,12.657,12.692,12.586,12.657,441200
10/10/1995,12.515,12.728,12.515,12.657,1046000
10/11/1995,12.657,12.692,12.622,12.657,347400
10/12/1995,12.728,12.763,12.657,12.728,822400
10/13/1995,12.834,12.941,12.763,12.87,346800
10/16/1995,12.87,12.905,12.728,12.834,338600
10/17/1995,12.728,12.799,12.692,12.692,586200
10/18/1995,12.692,12.763,12.692,12.692,425800
10/19/1995,12.586,12.586,12.373,12.48,1008200
10/20/1995,12.444,12.444,12.338,12.338,507400
10/23/1995,12.338,12.409,12.232,12.338,228400
10/24/1995,12.409,12.409,12.232,12.409,449800
10/25/1995,12.409,12.409,12.161,12.196,583600
10/26/1995,12.267,12.338,11.948,11.948,740400
10/27/1995,11.912,11.983,11.877,11.912,1053000
10/30/1995,11.912,12.125,11.912,12.054,627600
10/31/1995,12.09,12.232,12.054,12.054,513400
11/01/1995,12.054,12.125,12.054,12.09,379600
11/02/1995,12.161,12.302,12.161,12.232,692600
11/03/1995,12.232,12.409,12.232,12.338,212000
11/06/1995,12.232,12.302,12.232,12.267,330400
11/07/1995,12.267,12.338,12.232,12.267,730200
11/08/1995,12.388,12.495,12.317,12.495,396800
11/09/1995,12.495,12.531,12.424,12.424,543600
11/10/1995,12.46,12.46,12.353,12.388,244600
11/13/1995,12.246,12.388,12.246,12.317,456400
11/14/1995,12.281,12.46,12.21,12.317,891400
11/15/1995,12.317,12.388,12.281,12.388,292600
11/16/1995,12.353,12.424,12.246,12.281,1206200
11/17/1995,12.317,12.353,12.281,12.317,392200
11/20/1995,12.317,12.388,12.246,12.317,385400
11/21/1995,12.21,12.745,12.21,12.745,909400
11/22/1995,12.674,13.102,12.567,12.96,652400
11/24/1995,12.96,13.102,12.96,12.995,80600
11/27/1995,13.031,13.102,12.853,13.067,533800
11/28/1995,13.031,13.067,12.888,13.067,390400
11/29/1995,13.031,13.067,12.853,12.96,325200
11/30/1995,12.96,12.995,12.853,12.96,623400
12/01/1995,12.96,13.281,12.96,13.281,314400
12/04/1995,13.245,13.531,13.245,13.495,616000
12/05/1995,13.495,13.674,13.495,13.638,456600
12/06/1995,13.602,13.674,13.459,13.602,537000
12/07/1995,13.531,13.531,13.281,13.281,219000
12/08/1995,13.245,13.317,13.138,13.21,535600
12/11/1995,13.21,13.21,13.067,13.138,546800
12/12/1995,13.174,13.21,13.102,13.138,564600
12/13/1995,13.138,13.352,13.102,13.174,1021000
12/14/1995,13.21,13.281,13.031,13.067,814400
12/15/1995,13.067,13.067,12.888,12.888,1504200
12/18/1995,12.888,12.888,12.638,12.674,777600
12/19/1995,12.603,12.745,12.495,12.674,648400
12/20/1995,12.71,12.817,12.567,12.567,580800
12/21/1995,12.71,12.853,12.674,12.781,430800
12/22/1995,12.781,12.96,12.781,12.888,390600
12/26/1995,12.888,12.888,12.638,12.71,421000
12/27/1995,12.745,12.817,12.674,12.817,300000
12/28/1995,12.745,12.995,12.638,12.924,471000
12/29/1995,12.853,13.102,12.853,13.067,681400
01/02/1996,12.924,13.317,12.924,13.245,560400
01/03/1996,13.281,13.602,13.281,13.602,739600
01/04/1996,13.602,13.602,13.317,13.388,875600
01/05/1996,13.352,13.495,13.317,13.352,617600
01/08/1996,13.317,13.388,13.281,13.352,104800
01/09/1996,13.388,13.459,13.21,13.348,324600
01/10/1996,13.245,13.281,12.995,13.031,445000
01/11/1996,12.995,13.031,12.781,12.995,454800
01/12/1996,13.067,13.067,12.781,12.853,379600
01/15/1996,12.924,13.067,12.924,12.96,354400
01/16/1996,12.96,13.031,12.853,12.96,479200
01/17/1996,12.924,13.031,12.853,12.995,757600
01/18/1996,12.96,12.96,12.71,12.745,1006400
01/19/1996,12.495,12.603,12.246,12.495,1420400
01/22/1996,12.531,12.745,12.495,12.71,786400
01/23/1996,12.674,12.817,12.674,12.781,554400
01/24/1996,12.781,12.96,12.745,12.96,815600
01/25/1996,12.924,12.995,12.853,12.924,472400
01/26/1996,12.924,13.281,12.924,13.174,524800
01/29/1996,13.138,13.317,13.102,13.245,729800
01/30/1996,13.174,13.317,13.067,13.317,541000
01/31/1996,13.317,13.352,13.174,13.352,639400
02/01/1996,13.317,13.352,13.174,13.245,375000
02/02/1996,13.245,13.317,12.924,13.067,412600
02/05/1996,13.067,13.245,12.96,13.21,445600
02/06/1996,13.21,13.21,12.888,13.031,716000
02/07/1996,12.995,13.352,12.96,13.352,1076800
02/08/1996,13.281,13.567,13.21,13.531,383800
02/09/1996,13.352,13.781,13.352,13.638,729600
02/12/1996,13.638,13.995,13.638,13.995,828000
02/13/1996,13.852,13.959,13.709,13.924,1004200
02/14/1996,13.745,13.816,13.495,13.638,674600
02/15/1996,13.616,13.724,13.365,13.401,489400
02/16/1996,13.329,13.365,12.97,13.149,1429400
02/20/1996,12.79,12.97,12.646,12.934,1891800
02/21/1996,12.934,13.077,12.898,13.042,2096600
02/22/1996,13.149,13.545,13.113,13.545,718600
02/23/1996,13.652,13.724,13.365,13.58,671200
02/26/1996,13.545,13.652,13.365,13.58,577000
02/27/1996,13.58,13.58,13.437,13.509,462600
02/28/1996,13.509,13.652,13.329,13.329,599600
02/29/1996,13.257,13.401,13.113,13.329,496200
03/01/1996,13.437,13.473,13.293,13.473,444800
03/04/1996,13.545,13.76,13.545,13.652,594400
03/05/1996,13.652,13.76,13.545,13.76,327200
03/06/1996,13.688,13.76,13.616,13.652,473400
03/07/1996,13.58,13.58,13.437,13.473,414800
03/08/1996,13.257,13.473,13.185,13.365,746200
03/11/1996,13.293,13.437,13.221,13.437,557800
03/12/1996,13.365,13.76,13.293,13.545,649200
03/13/1996,13.545,13.688,13.437,13.688,569400
03/14/1996,13.652,13.904,13.509,13.868,619800
03/15/1996,13.796,13.832,13.724,13.76,1013000
03/18/1996,13.868,13.976,13.832,13.976,521600
03/19/1996,13.976,14.048,13.868,13.94,620600
03/20/1996,13.94,14.012,13.796,13.868,887200
03/21/1996,13.832,13.904,13.688,13.796,627400
03/22/1996,13.796,14.191,13.796,14.155,972600
03/25/1996,14.335,14.371,14.048,14.048,1827400
03/26/1996,14.155,14.407,14.137,14.191,1101200
03/27/1996,14.155,14.227,14.048,14.048,415800
03/28/1996,13.94,14.083,13.904,14.048,1250000
03/29/1996,14.119,14.119,14.012,14.048,494600
04/01/1996,14.048,14.515,14.048,14.443,812600
04/02/1996,14.299,14.407,14.263,14.371,514000
04/03/1996,14.335,14.586,14.299,14.479,430600
04/04/1996,14.407,14.479,14.335,14.371,894000
04/08/1996,14.155,14.263,13.976,14.191,785000
04/09/1996,14.191,14.335,14.119,14.191,921000
04/10/1996,14.083,14.155,14.012,14.048,595800
04/11/1996,14.012,14.119,13.94,14.119,472400
04/12/1996,14.083,14.119,13.94,14.012,907800
04/15/1996,14.012,14.048,13.94,14.048,921000
04/16/1996,14.012,14.299,13.976,14.227,613800
04/17/1996,14.191,14.335,14.119,14.191,475800
04/18/1996,14.191,14.299,14.048,14.227,722000
04/19/1996,14.586,14.874,14.55,14.802,903000
04/22/1996,14.658,14.694,14.479,14.622,731800
04/23/1996,14.622,14.91,14.586,14.91,703600
04/24/1996,14.874,14.874,14.622,14.73,324000
04/25/1996,14.658,14.694,14.515,14.586,483600
04/26/1996,14.622,14.874,14.586,14.73,316400
04/29/1996,14.658,14.694,14.55,14.586,246800
04/30/1996,14.586,14.622,14.515,14.55,450800
05/01/1996,14.55,14.622,14.515,14.55,305200
05/02/1996,14.55,14.586,14.515,14.586,506400
05/03/1996,14.586,14.622,14.515,14.515,368000
05/06/1996,14.55,14.586,14.407,14.586,805200
05/07/1996,14.515,14.55,14.371,14.479,484800
05/08/1996,14.427,14.535,14.354,14.463,674000
05/09/1996,14.427,14.68,14.39,14.535,360800
05/10/1996,14.607,14.824,14.571,14.752,675400
05/13/1996,14.607,14.752,14.535,14.716,623000
05/14/1996,14.68,14.86,14.68,14.824,406600
05/15/1996,14.824,15.005,14.716,14.969,491600
05/16/1996,14.969,14.969,14.824,14.897,431200
05/17/1996,14.933,15.258,14.897,15.041,644800
05/20/1996,15.186,15.258,15.077,15.258,597400
05/21/1996,15.222,15.33,15.222,15.33,512000
05/22/1996,15.114,15.367,15.041,15.33,593400
05/23/1996,15.33,15.475,15.33,15.33,404400
05/24/1996,15.33,15.439,15.294,15.439,625000
05/28/1996,15.33,15.403,15.222,15.294,552600
05/29/1996,15.294,15.33,15.186,15.222,290200
05/30/1996,15.15,15.367,15.114,15.33,643800
05/31/1996,15.186,15.222,14.897,14.969,490400
06/03/1996,14.86,15.041,14.824,15.041,388800
06/04/1996,15.041,15.041,14.969,15.005,375600
06/05/1996,14.933,15.005,14.86,14.933,326600
06/06/1996,14.933,14.933,14.535,14.607,999800
06/07/1996,14.173,14.535,14.173,14.499,1199200
06/10/1996,14.571,14.571,14.427,14.499,991200
06/11/1996,14.463,14.607,14.427,14.499,630200
06/12/1996,14.499,14.716,14.427,14.571,334200
06/13/1996,14.571,14.571,14.318,14.535,552400
06/14/1996,14.463,14.499,14.318,14.318,685800
06/17/1996,14.354,14.463,14.318,14.318,578200
06/18/1996,14.318,14.427,14.318,14.39,296800
06/19/1996,14.39,14.427,14.246,14.39,490400
06/20/1996,14.39,14.427,14.101,14.137,375200
06/21/1996,14.137,14.318,14.101,14.246,915200
06/24/1996,14.318,14.499,14.246,14.463,788000
06/25/1996,14.427,14.499,14.354,14.354,720600
06/26/1996,14.39,14.463,14.282,14.318,598600
06/27/1996,14.318,14.354,14.282,14.354,467400
06/28/1996,14.427,14.427,14.065,14.101,1072400
07/01/1996,14.173,14.21,13.848,14.065,688200
07/02/1996,14.065,14.065,13.957,13.993,682800
07/03/1996,13.884,13.993,13.884,13.957,440800
07/05/1996,13.74,13.812,13.631,13.703,256800
07/08/1996,13.776,13.812,13.667,13.703,379200
07/09/1996,13.703,13.957,13.667,13.884,525400
07/10/1996,13.776,13.848,13.559,13.776,581600
07/11/1996,13.812,13.957,13.667,13.667,295600
07/12/1996,13.667,13.74,13.378,13.523,427400
07/15/1996,13.45,13.45,13.053,13.161,841600
07/16/1996,13.125,13.306,12.908,13.089,1004200
07/17/1996,13.161,13.233,12.98,13.016,720000
07/18/1996,13.089,13.667,13.089,13.523,762600
07/19/1996,13.486,13.595,13.197,13.342,449200
07/22/1996,13.378,13.414,13.125,13.161,509000
07/23/1996,13.233,13.378,13.053,13.125,883600
07/24/1996,13.016,13.667,13.016,13.595,1143200
07/25/1996,13.595,13.812,13.595,13.631,1182400
07/26/1996,13.703,14.137,13.667,14.029,484200
07/29/1996,13.957,14.065,13.884,13.92,419600
07/30/1996,13.92,14.137,13.884,14.137,436800
07/31/1996,14.137,14.318,14.101,14.246,358200
08/01/1996,14.173,14.607,14.173,14.535,578000
08/02/1996,14.68,14.897,14.644,14.752,474200
08/05/1996,14.68,14.752,14.68,14.752,253600
08/06/1996,14.644,14.752,14.607,14.716,550400
08/07/1996,14.716,14.86,14.68,14.752,955800
08/08/1996,14.772,14.954,14.736,14.954,828200
08/09/1996,14.918,15.027,14.772,14.991,463600
08/12/1996,14.882,15.1,14.882,15.1,606800
08/13/1996,15.027,15.1,14.882,14.918,636600
08/14/1996,14.918,15.063,14.918,14.954,846800
08/15/1996,14.991,14.991,14.772,14.772,497800
08/16/1996,14.772,14.954,14.772,14.954,530600
08/19/1996,14.882,15.027,14.809,14.991,335600
08/20/1996,14.918,15.136,14.918,15.027,434200
08/21/1996,14.991,14.991,14.882,14.954,486200
08/22/1996,14.845,14.991,14.809,14.882,690800
08/23/1996,14.809,14.918,14.772,14.882,310400
08/26/1996,14.809,14.845,14.627,14.736,294000
08/27/1996,14.7,14.809,14.627,14.736,268200
08/28/1996,14.7,14.772,14.7,14.736,246200
08/29/1996,14.7,14.7,14.445,14.554,365200
08/30/1996,14.518,14.554,14.372,14.372,418200
09/03/1996,14.263,14.445,14.154,14.408,396000
09/04/1996,14.445,14.554,14.299,14.554,336000
09/05/1996,14.481,14.481,14.372,14.445,359000
09/06/1996,14.518,14.736,14.445,14.627,390600
09/09/1996,14.736,14.954,14.736,14.918,361000
09/10/1996,14.991,15.027,14.954,14.991,570200
09/11/1996,14.991,15.136,14.954,15.136,375200
09/12/1996,15.136,15.245,15.063,15.136,243600
09/13/1996,15.282,15.427,15.282,15.427,261600
09/16/1996,15.427,15.573,15.318,15.427,476400
09/17/1996,15.464,15.464,15.245,15.427,412600
09/18/1996,15.355,15.391,15.173,15.245,366400
09/19/1996,15.209,15.427,15.136,15.282,349200
09/20/1996,15.318,15.5,15.282,15.5,1226600
09/23/1996,15.282,15.464,15.282,15.391,836600
09/24/1996,15.391,15.573,15.318,15.536,649000
09/25/1996,15.5,15.609,15.464,15.573,470800
09/26/1996,15.536,15.718,15.518,15.609,787200
09/27/1996,15.536,15.646,15.464,15.609,360200
09/30/1996,15.573,15.864,15.573,15.828,844000
10/01/1996,15.718,15.718,15.609,15.609,558000
10/02/1996,15.718,15.791,15.609,15.718,542600
10/03/1996,15.718,16.009,15.718,16.009,854600
10/04/1996,16.009,16.082,15.9,16.009,373200
10/07/1996,15.973,16.009,15.9,15.9,303800
10/08/1996,15.864,16.046,15.864,15.9,415000
10/09/1996,15.9,15.973,15.5,15.828,539600
10/10/1996,15.718,15.9,15.682,15.9,335400
10/11/1996,15.9,16.009,15.9,15.973,303600
10/14/1996,15.937,16.228,15.937,16.155,240800
10/15/1996,16.155,16.191,16.009,16.046,560800
10/16/1996,16.082,16.264,16.009,16.264,447200
10/17/1996,16.301,16.81,16.264,16.519,578000
10/18/1996,16.555,16.555,16.373,16.519,247800
10/21/1996,16.519,16.555,16.446,16.519,291800
10/22/1996,16.519,16.519,16.41,16.482,253400
10/23/1996,16.41,16.592,16.373,16.592,329400
10/24/1996,16.592,16.628,16.391,16.555,486000
10/25/1996,16.482,16.592,16.482,16.482,237800
10/28/1996,16.592,16.774,16.519,16.592,654600
10/29/1996,16.592,16.664,16.446,16.592,853200
10/30/1996,16.628,16.628,16.373,16.482,506200
10/31/1996,16.41,16.664,16.337,16.592,363800
11/01/1996,16.628,16.81,16.628,16.774,386400
11/04/1996,16.846,16.846,16.628,16.774,391400
11/05/1996,16.81,16.883,16.774,16.81,207400
11/06/1996,16.81,16.846,16.737,16.846,320800
11/07/1996,16.867,17.269,16.83,17.159,512000
11/08/1996,17.086,17.159,16.977,17.159,153200
11/11/1996,17.159,17.452,17.123,17.416,486000
11/12/1996,17.379,17.452,17.233,17.342,587200
11/13/1996,17.269,17.489,17.233,17.416,235000
11/14/1996,17.306,17.379,17.196,17.269,415800
11/15/1996,17.269,17.269,17.123,17.159,579000
11/18/1996,17.196,17.269,17.086,17.233,442000
11/19/1996,17.269,17.306,17.233,17.269,353800
11/20/1996,17.269,17.342,17.196,17.342,266400
11/21/1996,17.416,17.562,17.306,17.525,479600
11/22/1996,17.562,17.708,17.416,17.599,472400
11/25/1996,17.525,17.818,17.525,17.781,482400
11/26/1996,17.781,17.928,17.708,17.855,531000
11/27/1996,17.855,18.221,17.855,18.038,446000
11/29/1996,18.038,18.074,17.928,17.928,103800
12/02/1996,17.855,18.221,17.672,18.074,658000
12/03/1996,17.964,18.221,17.781,17.781,535200
12/04/1996,17.635,17.818,17.562,17.635,1005000
12/05/1996,17.672,17.818,17.672,17.745,598000
12/06/1996,17.562,17.635,17.416,17.525,724200
12/09/1996,17.525,17.708,17.525,17.708,291600
12/10/1996,17.708,17.708,17.562,17.562,215800
12/11/1996,17.489,17.525,16.977,16.977,904400
12/12/1996,17.05,17.086,16.538,16.757,1408400
12/13/1996,16.611,16.794,16.538,16.611,509600
12/16/1996,16.611,16.757,16.574,16.684,506000
12/17/1996,16.538,16.574,16.245,16.245,793400
12/18/1996,16.208,16.391,15.989,16.098,768800
12/19/1996,16.098,16.391,16.062,16.318,1182200
12/20/1996,16.757,16.757,16.464,16.538,1102000
12/23/1996,16.501,16.794,16.428,16.538,389000
12/24/1996,16.611,16.647,16.501,16.647,254600
12/26/1996,16.647,16.83,16.647,16.72,232200
12/27/1996,16.72,16.794,16.574,16.611,180200
12/30/1996,16.684,16.757,16.647,16.72,268000
12/31/1996,16.647,16.647,16.428,16.428,389800
01/02/1997,16.391,16.391,15.934,16.098,871800
01/03/1997,16.098,16.391,16.098,16.355,456000
01/06/1997,16.464,16.538,16.208,16.281,687000
01/07/1997,16.245,16.318,16.135,16.172,701000
01/08/1997,16.172,16.172,15.659,15.696,973800
01/09/1997,15.733,15.733,15.33,15.513,1912000
01/10/1997,15.33,15.952,15.33,15.879,1700000
01/13/1997,15.842,15.879,15.769,15.806,808600
01/14/1997,15.989,15.989,15.806,15.842,573600
01/15/1997,15.806,15.842,15.586,15.623,935800
01/16/1997,15.623,15.733,15.294,15.696,1875800
01/17/1997,15.733,16.208,15.733,16.172,1030400
01/20/1997,16.172,16.318,16.062,16.245,1414400
01/21/1997,16.172,16.245,16.098,16.172,1098600
01/22/1997,16.098,16.135,15.842,15.842,1210200
01/23/1997,15.879,16.025,15.879,15.879,972200
01/24/1997,15.879,15.989,15.806,15.916,817000
01/27/1997,15.916,15.916,15.806,15.806,599600
01/28/1997,15.952,15.952,15.806,15.806,421600
01/29/1997,15.842,15.879,15.623,15.696,834600
01/30/1997,15.769,15.769,15.513,15.55,1671000
01/31/1997,15.623,15.696,15.586,15.659,1372800
02/03/1997,15.733,15.806,15.623,15.696,380000
02/04/1997,15.769,15.769,15.55,15.623,466600
02/05/1997,15.696,15.806,15.513,15.586,585400
02/06/1997,15.586,15.623,15.513,15.586,428600
02/07/1997,15.586,15.696,15.55,15.586,465600
02/10/1997,15.623,15.696,15.518,15.586,349600
02/11/1997,15.586,15.586,15.513,15.55,826600
02/12/1997,15.623,15.733,15.586,15.659,766000
02/13/1997,15.793,16.088,15.793,16.051,1138600
02/14/1997,16.125,16.162,16.014,16.014,777400
02/18/1997,16.051,16.235,16.014,16.198,703000
02/19/1997,16.125,16.382,16.088,16.235,1091600
02/20/1997,16.235,16.346,16.162,16.198,575200
02/21/1997,16.198,16.309,16.162,16.309,524800
02/24/1997,16.272,16.456,16.235,16.382,878600
02/25/1997,16.456,16.53,16.382,16.419,927400
02/26/1997,16.456,16.456,16.272,16.419,586000
02/27/1997,16.456,16.456,16.346,16.419,368400
02/28/1997,16.382,16.677,16.346,16.493,584200
03/03/1997,16.456,16.603,16.419,16.567,385800
03/04/1997,16.53,16.53,16.382,16.382,477600
03/05/1997,16.382,16.751,16.382,16.677,904800
03/06/1997,16.64,16.64,16.419,16.53,1039400
03/07/1997,16.493,16.64,16.493,16.603,585400
03/10/1997,16.567,16.714,16.53,16.714,605400
03/11/1997,16.714,16.898,16.567,16.787,622000
03/12/1997,16.787,16.898,16.493,16.64,573800
03/13/1997,16.567,16.603,16.493,16.493,655800
03/14/1997,16.493,16.677,16.493,16.64,601200
03/17/1997,16.603,16.824,16.493,16.787,333200
03/18/1997,16.751,16.898,16.382,16.53,488800
03/19/1997,16.493,16.567,16.382,16.567,397400
03/20/1997,16.493,16.493,16.125,16.162,330600
03/21/1997,16.309,16.309,16.088,16.125,579000
03/24/1997,16.162,16.419,16.088,16.382,507400
03/25/1997,16.382,16.382,16.051,16.051,397200
03/26/1997,16.051,16.235,16.014,16.198,651400
03/27/1997,16.346,16.346,16.162,16.162,770800
03/31/1997,16.014,16.162,15.904,15.904,678800
04/01/1997,15.72,15.793,15.499,15.683,479000
04/02/1997,15.573,15.72,15.388,15.425,402400
04/03/1997,15.352,15.388,15.278,15.315,899400
04/04/1997,15.204,15.241,15.168,15.204,718600
04/07/1997,15.094,15.499,15.094,15.388,519600
04/08/1997,15.352,15.352,15.094,15.241,680200
04/09/1997,15.241,15.315,15.131,15.168,297000
04/10/1997,15.094,15.168,14.983,15.057,409000
04/11/1997,14.947,14.983,14.615,14.726,540600
04/14/1997,14.652,14.652,14.321,14.431,1010800
04/15/1997,14.431,14.836,14.394,14.799,1555200
04/16/1997,14.763,15.057,14.615,15.02,1514000
04/17/1997,14.983,15.241,14.91,15.204,572800
04/18/1997,15.315,15.72,15.278,15.609,960400
04/21/1997,15.609,15.757,15.462,15.499,671800
04/22/1997,15.462,15.793,15.388,15.757,741400
04/23/1997,15.793,15.977,15.536,15.609,583600
04/24/1997,15.646,15.904,15.609,15.683,411200
04/25/1997,15.683,15.793,15.536,15.609,519600
04/28/1997,15.609,15.683,15.573,15.609,506400
04/29/1997,15.757,15.867,15.738,15.793,507200
04/30/1997,15.867,16.014,15.83,16.014,623800
05/01/1997,16.051,16.162,15.904,16.162,575000
05/02/1997,16.162,16.567,16.162,16.53,481400
05/05/1997,16.567,16.64,16.346,16.64,534600
05/06/1997,16.64,17.082,16.64,16.935,836800
05/07/1997,16.935,17.082,16.677,16.714,479400
05/08/1997,16.626,17.108,16.589,17.034,801000
05/09/1997,17.108,17.145,16.7,17.071,451200
05/12/1997,17.182,17.293,17.071,17.145,399600
05/13/1997,17.182,17.256,16.886,17.034,466800
05/14/1997,17.071,17.145,16.923,17.145,514800
05/15/1997,17.145,17.293,16.96,17.256,291400
05/16/1997,17.182,17.256,17.034,17.219,601600
05/19/1997,17.145,17.219,17.108,17.182,274000
05/20/1997,17.108,17.108,16.7,16.997,530000
05/21/1997,16.997,17.108,16.441,16.626,855600
05/22/1997,16.663,16.7,16.515,16.589,881800
05/23/1997,16.626,16.997,16.626,16.923,530200
05/27/1997,16.923,16.997,16.7,16.96,551800
05/28/1997,16.96,16.96,16.737,16.774,321800
05/29/1997,16.812,17.108,16.774,17.108,406200
05/30/1997,17.034,17.33,16.997,17.219,484200
06/02/1997,17.145,17.145,16.886,16.96,290200
06/03/1997,16.886,17.034,16.849,16.997,254600
06/04/1997,16.923,16.923,16.552,16.663,283000
06/05/1997,16.552,16.886,16.552,16.774,253800
06/06/1997,16.737,17.071,16.737,17.071,358600
06/09/1997,17.071,17.182,16.923,16.997,251800
06/10/1997,17.108,17.108,16.96,16.997,559600
06/11/1997,16.997,17.219,16.997,17.108,353000
06/12/1997,17.182,17.552,17.145,17.552,475200
06/13/1997,17.515,17.774,17.478,17.552,770800
06/16/1997,17.7,17.848,17.626,17.774,588200
06/17/1997,17.7,17.7,17.441,17.478,563400
06/18/1997,17.478,17.478,17.219,17.293,567000
06/19/1997,17.293,17.589,17.293,17.515,432600
06/20/1997,17.552,17.589,17.145,17.145,779000
06/23/1997,17.145,17.293,16.997,17.034,555600
06/24/1997,17.034,17.737,16.886,17.7,607400
06/25/1997,17.589,17.737,17.33,17.46,641400
06/26/1997,17.385,17.478,16.997,17.219,392800
06/27/1997,17.33,17.367,17.2,17.2,300400
06/30/1997,17.145,17.33,16.96,17.219,717800
07/01/1997,17.182,17.663,17.182,17.478,483000
07/02/1997,17.515,17.515,17.219,17.385,391400
07/03/1997,17.515,17.663,17.515,17.534,232800
07/07/1997,17.478,17.7,17.367,17.478,347800
07/08/1997,17.404,17.668,17.348,17.589,333800
07/09/1997,17.7,17.904,17.663,17.774,727800
07/10/1997,17.83,17.996,17.7,17.996,369600
07/11/1997,17.996,18.108,17.922,18.089,517800
07/14/1997,18.071,18.163,17.959,17.996,338400
07/15/1997,17.996,18.089,17.848,18.089,331800
07/16/1997,18.163,18.404,18.108,18.367,643400
07/17/1997,18.478,18.478,18.237,18.348,389400
07/18/1997,18.348,18.367,18.163,18.163,885800
07/21/1997,18.145,18.2,18.034,18.071,758400
07/22/1997,18.034,18.367,18.034,18.311,426800
07/23/1997,18.256,18.459,18.237,18.404,410000
07/24/1997,18.385,18.478,18.367,18.404,490000
07/25/1997,18.441,18.589,18.404,18.478,323600
07/28/1997,18.589,18.737,18.57,18.57,240400
07/29/1997,18.589,18.904,18.552,18.793,331400
07/30/1997,18.793,18.996,18.774,18.978,425800
